BB_138A_89
Integration time [ms]: 100,000
Averaging Nr. [scans]: 10
Smoothing Nr. [pixels]: 3
Data measured with spectrometer [name]: 7516255SP
Wave   ;Sample   ;Dark     ;Reference
[nm]   ;[counts] ;[counts] ;[counts] 

177,229;  349,260;  246,500;    0,000
177,829;  348,416;  244,100;    0,000
178,430;  351,776;  247,950;    0,000
179,030;  352,306;  248,171;    0,000
179,630;  355,983;  250,214;    0,000
180,230;  350,047;  247,000;    0,000
180,830;  354,375;  250,743;    0,000
181,430;  351,873;  247,329;    0,000
182,030;  349,304;  252,600;    0,000
182,630;  341,328;  250,629;    0,000
183,230;  343,360;  255,686;    0,000
183,830;  337,022;  255,229;    0,000
184,430;  341,909;  260,300;    0,000
185,030;  341,901;  261,701;    0,000
185,630;  341,950;  264,017;    0,000
186,229;  340,990;  262,761;    0,000
186,829;  352,936;  264,219;    0,000
187,429;  345,364;  258,963;    0,000
188,029;  342,226;  261,151;    0,000
188,628;  336,346;  259,952;    0,000
189,228;  337,417;  260,352;    0,000
189,828;  335,476;  260,896;    0,000
190,428;  339,126;  262,440;    0,000
191,027;  328,941;  262,598;    0,000
191,627;  340,304;  263,755;    0,000
192,227;  342,184;  260,655;    0,000
192,826;  351,522;  259,584;    0,000
193,426;  343,648;  256,684;    0,000
194,025;  346,834;  258,468;    0,000
194,625;  346,431;  255,010;    0,000
195,224;  348,786;  251,038;    0,000
195,824;  336,084;  247,551;    0,000
196,423;  335,142;  249,451;    0,000
197,023;  320,893;  241,551;    0,000
197,622;  327,931;  246,593;    0,000
198,221;  320,958;  241,736;    0,000
198,821;  315,710;  240,136;    0,000
199,420;  315,258;  238,835;    0,000
200,019;  311,952;  236,607;    0,000
200,619;  315,958;  236,978;    0,000
201,218;  314,553;  240,392;    0,000
201,817;  308,561;  233,250;    0,000
202,416;  310,661;  238,907;    0,000
203,016;  319,969;  238,549;    0,000
203,615;  314,098;  241,292;    0,000
204,214;  316,557;  242,307;    0,000
204,813;  314,618;  244,378;    0,000
205,412;  322,303;  244,535;    0,000
206,011;  323,109;  246,164;    0,000
206,610;  316,578;  237,335;    0,000
207,209;  305,970;  234,564;    0,000
207,808;  307,501;  235,521;    0,000
208,407;  303,838;  237,135;    0,000
209,006;  299,017;  231,149;    0,000
209,605;  296,378;  235,249;    0,000
210,204;  296,907;  232,521;    0,000
210,803;  300,168;  234,649;    0,000
211,402;  302,310;  237,549;    0,000
212,001;  308,855;  237,221;    0,000
212,599;  314,301;  236,506;    0,000
213,198;  318,869;  238,564;    0,000
213,797;  322,162;  233,906;    0,000
214,396;  327,058;  238,278;    0,000
214,994;  325,082;  237,249;    0,000
215,593;  321,321;  237,392;    0,000
216,192;  312,408;  235,535;    0,000
216,790;  319,006;  237,421;    0,000
217,389;  314,861;  238,892;    0,000
217,988;  313,816;  240,978;    0,000
218,586;  302,789;  236,707;    0,000
219,185;  298,091;  234,435;    0,000
219,783;  299,347;  232,592;    0,000
220,382;  301,667;  235,121;    0,000
220,980;  299,316;  235,021;    0,000
221,579;  300,981;  235,835;    0,000
222,177;  301,879;  235,278;    0,000
222,776;  305,645;  235,449;    0,000
223,374;  316,015;  239,135;    0,000
223,972;  316,093;  240,049;    0,000
224,571;  321,971;  237,164;    0,000
225,169;  309,265;  238,135;    0,000
225,767;  306,649;  235,292;    0,000
226,366;  305,645;  237,906;    0,000
226,964;  307,890;  238,321;    0,000
227,562;  303,453;  237,835;    0,000
228,160;  299,876;  238,092;    0,000
228,758;  289,243;  235,635;    0,000
229,356;  297,249;  235,492;    0,000
229,955;  298,284;  235,949;    0,000
230,553;  295,549;  235,792;    0,000
231,151;  290,123;  233,421;    0,000
231,749;  288,430;  234,721;    0,000
232,347;  302,587;  236,378;    0,000
232,945;  310,003;  237,907;    0,000
233,543;  313,733;  238,421;    0,000
234,141;  313,493;  233,707;    0,000
234,739;  318,055;  234,049;    0,000
235,337;  317,450;  239,164;    0,000
235,934;  320,747;  240,092;    0,000
236,532;  312,638;  241,850;    0,000
237,130;  308,918;  243,264;    0,000
237,728;  307,808;  244,092;    0,000
238,326;  302,486;  249,950;    0,000
238,923;  298,743;  245,193;    0,000
239,521;  299,903;  241,321;    0,000
240,119;  296,594;  235,707;    0,000
240,716;  299,735;  234,492;    0,000
241,314;  293,887;  231,364;    0,000
241,912;  285,283;  225,549;    0,000
242,509;  297,885;  230,807;    0,000
243,107;  296,382;  235,635;    0,000
243,704;  298,117;  236,392;    0,000
244,302;  295,661;  244,049;    0,000
244,899;  294,583;  243,121;    0,000
245,497;  299,532;  246,821;    0,000
246,094;  308,985;  245,292;    0,000
246,692;  307,416;  239,021;    0,000
247,289;  298,930;  234,021;    0,000
247,887;  298,157;  236,549;    0,000
248,484;  305,506;  234,692;    0,000
249,081;  299,129;  230,249;    0,000
249,679;  295,298;  228,406;    0,000
250,276;  280,928;  232,249;    0,000
250,873;  275,021;  233,121;    0,000
251,470;  288,693;  240,392;    0,000
252,067;  282,886;  233,878;    0,000
252,665;  275,753;  233,292;    0,000
253,262;  277,652;  236,963;    0,000
253,859;  285,902;  240,335;    0,000
254,456;  289,742;  242,163;    0,000
255,053;  289,805;  240,306;    0,000
255,650;  291,618;  239,549;    0,000
256,247;  300,150;  241,278;    0,000
256,844;  298,295;  237,535;    0,000
257,441;  297,485;  242,049;    0,000
258,038;  292,474;  233,377;    0,000
258,635;  304,738;  236,663;    0,000
259,232;  302,543;  235,135;    0,000
259,829;  301,016;  234,249;    0,000
260,426;  296,352;  235,006;    0,000
261,022;  303,474;  238,578;    0,000
261,619;  309,308;  235,764;    0,000
262,216;  306,012;  240,035;    0,000
262,813;  300,089;  233,921;    0,000
263,409;  304,877;  236,878;    0,000
264,006;  303,351;  235,878;    0,000
264,603;  300,188;  238,220;    0,000
265,199;  303,809;  238,863;    0,000
265,796;  290,485;  233,806;    0,000
266,393;  308,740;  241,092;    0,000
266,989;  308,496;  241,006;    0,000
267,586;  308,180;  240,849;    0,000
268,182;  306,092;  243,492;    0,000
268,779;  320,367;  243,992;    0,000
269,375;  321,946;  245,206;    0,000
269,971;  318,603;  243,035;    0,000
270,568;  301,046;  239,363;    0,000
271,164;  291,212;  238,049;    0,000
271,761;  290,895;  239,421;    0,000
272,357;  290,365;  234,863;    0,000
272,953;  276,711;  234,935;    0,000
273,550;  274,340;  235,378;    0,000
274,146;  284,667;  240,049;    0,000
274,742;  286,383;  240,178;    0,000
275,338;  293,887;  240,521;    0,000
275,934;  293,025;  243,349;    0,000
276,531;  282,050;  241,978;    0,000
277,127;  279,862;  240,135;    0,000
277,723;  276,019;  237,049;    0,000
278,319;  263,671;  234,764;    0,000
278,915;  269,706;  239,078;    0,000
279,511;  256,573;  232,907;    0,000
280,107;  254,716;  232,264;    0,000
280,703;  259,183;  234,135;    0,000
281,299;  261,601;  234,892;    0,000
281,895;  259,564;  235,021;    0,000
282,491;  268,152;  234,878;    0,000
283,086;  268,633;  235,178;    0,000
283,682;  273,408;  240,407;    0,000
284,278;  277,383;  237,535;    0,000
284,874;  276,366;  235,107;    0,000
285,470;  284,758;  238,621;    0,000
286,065;  280,461;  238,550;    0,000
286,661;  283,939;  242,621;    0,000
287,257;  275,133;  235,707;    0,000
287,852;  281,382;  237,850;    0,000
288,448;  277,073;  236,607;    0,000
289,044;  272,583;  236,907;    0,000
289,639;  265,380;  233,950;    0,000
290,235;  264,119;  231,050;    0,000
290,830;  263,493;  228,907;    0,000
291,426;  259,577;  226,707;    0,000
292,021;  262,492;  227,721;    0,000
292,617;  256,040;  224,664;    0,000
293,212;  258,981;  225,221;    0,000
293,807;  249,700;  222,750;    0,000
294,403;  253,461;  229,278;    0,000
294,998;  248,383;  230,678;    0,000
295,593;  246,293;  231,064;    0,000
296,189;  244,564;  229,864;    0,000
296,784;  243,439;  229,049;    0,000
297,379;  250,477;  231,092;    0,000
297,974;  256,168;  235,106;    0,000
298,570;  250,864;  227,849;    0,000
299,165;  247,814;  224,992;    0,000
299,760;  247,974;  225,321;    0,000
300,355;  241,179;  228,921;    0,000
300,950;  242,025;  231,735;    0,000
301,545;  239,537;  232,621;    0,000
302,140;  246,385;  231,064;    0,000
302,735;  250,798;  232,049;    0,000
303,330;  255,244;  236,049;    0,000
303,925;  259,878;  235,949;    0,000
304,520;  263,738;  234,449;    0,000
305,115;  261,945;  236,307;    0,000
305,709;  254,383;  232,021;    0,000
306,304;  251,186;  229,064;    0,000
306,899;  244,728;  226,607;    0,000
307,494;  246,836;  225,964;    0,000
308,089;  248,760;  222,292;    0,000
308,683;  252,512;  222,035;    0,000
309,278;  259,769;  217,821;    0,000
309,873;  261,921;  221,635;    0,000
310,467;  263,528;  225,692;    0,000
311,062;  267,754;  229,878;    0,000
311,656;  272,702;  228,035;    0,000
312,251;  270,753;  233,449;    0,000
312,846;  267,286;  233,563;    0,000
313,440;  265,853;  238,392;    0,000
314,035;  273,484;  235,235;    0,000
314,629;  274,540;  236,820;    0,000
315,223;  275,664;  239,920;    0,000
315,818;  269,122;  242,178;    0,000
316,412;  268,145;  239,749;    0,000
317,006;  268,842;  239,292;    0,000
317,601;  260,403;  235,978;    0,000
318,195;  259,687;  241,921;    0,000
318,789;  256,751;  240,078;    0,000
319,384;  254,671;  239,507;    0,000
319,978;  249,289;  234,821;    0,000
320,572;  252,921;  237,950;    0,000
321,166;  255,148;  240,607;    0,000
321,760;  264,508;  242,092;    0,000
322,354;  268,104;  238,864;    0,000
322,948;  269,299;  237,778;    0,000
323,542;  269,540;  235,578;    0,000
324,136;  271,187;  237,978;    0,000
324,730;  272,026;  237,349;    0,000
325,324;  268,987;  233,963;    0,000
325,918;  270,058;  233,006;    0,000
326,512;  267,158;  233,192;    0,000
327,106;  263,672;  236,363;    0,000
327,700;  272,331;  233,149;    0,000
328,294;  277,056;  235,877;    0,000
328,887;  266,637;  234,720;    0,000
329,481;  272,724;  236,106;    0,000
330,075;  271,373;  234,634;    0,000
330,669;  263,545;  232,520;    0,000
331,262;  258,141;  226,577;    0,000
331,856;  244,660;  226,992;    0,000
332,449;  241,280;  225,963;    0,000
333,043;  250,805;  228,077;    0,000
333,637;  242,127;  224,620;    0,000
334,230;  238,405;  224,334;    0,000
334,824;  241,117;  224,734;    0,000
335,417;  238,699;  225,320;    0,000
336,011;  236,760;  224,977;    0,000
336,604;  231,577;  218,520;    0,000
337,197;  226,156;  213,805;    0,000
337,791;  232,519;  214,663;    0,000
338,384;  228,795;  213,991;    0,000
338,977;  227,810;  212,834;    0,000
339,571;  228,311;  211,249;    0,000
340,164;  236,670;  210,091;    0,000
340,757;  247,502;  217,863;    0,000
341,350;  250,917;  217,548;    0,000
341,943;  240,684;  214,991;    0,000
342,537;  243,685;  211,906;    0,000
343,130;  234,951;  210,448;    0,000
343,723;  238,646;  213,891;    0,000
344,316;  229,737;  212,191;    0,000
344,909;  230,767;  209,620;    0,000
345,502;  228,333;  214,991;    0,000
346,095;  225,639;  217,477;    0,000
346,688;  226,911;  223,720;    0,000
347,281;  234,418;  223,891;    0,000
347,874;  238,851;  223,234;    0,000
348,466;  244,415;  232,305;    0,000
349,059;  239,951;  232,305;    0,000
349,652;  233,417;  227,905;    0,000
350,245;  236,215;  227,862;    0,000
350,838;  232,955;  224,748;    0,000
351,430;  232,389;  226,791;    0,000
352,023;  224,742;  222,262;    0,000
352,616;  220,403;  214,477;    0,000
353,208;  218,959;  215,991;    0,000
353,801;  222,597;  220,548;    0,000
354,393;  225,939;  221,248;    0,000
354,986;  228,928;  222,963;    0,000
355,578;  229,034;  222,991;    0,000
356,171;  234,533;  227,734;    0,000
356,763;  238,077;  231,677;    0,000
357,356;  235,393;  228,805;    0,000
357,948;  237,704;  225,205;    0,000
358,541;  236,403;  225,734;    0,000
359,133;  239,414;  227,063;    0,000
359,725;  236,671;  225,562;    0,000
360,318;  235,786;  222,305;    0,000
360,910;  233,655;  223,048;    0,000
361,502;  236,678;  223,791;    0,000
362,094;  240,882;  224,248;    0,000
362,686;  239,598;  218,677;    0,000
363,279;  237,962;  215,248;    0,000
363,871;  243,203;  219,305;    0,000
364,463;  241,110;  221,777;    0,000
365,055;  247,749;  218,034;    0,000
365,647;  244,521;  218,791;    0,000
366,239;  233,576;  216,263;    0,000
366,831;  236,062;  221,691;    0,000
367,423;  230,451;  224,605;    0,000
368,015;  231,852;  221,120;    0,000
368,607;  229,361;  221,420;    0,000
369,198;  222,749;  224,748;    0,000
369,790;  224,933;  222,805;    0,000
370,382;  223,342;  222,448;    0,000
370,974;  216,931;  219,391;    0,000
371,565;  216,284;  217,891;    0,000
372,157;  204,701;  216,862;    0,000
372,749;  211,213;  216,705;    0,000
373,341;  205,861;  210,891;    0,000
373,932;  208,421;  217,363;    0,000
374,524;  216,027;  220,948;    0,000
375,115;  223,907;  222,748;    0,000
375,707;  226,867;  225,720;    0,000
376,298;  233,636;  228,977;    0,000
376,890;  234,403;  228,691;    0,000
377,481;  238,781;  233,534;    0,000
378,073;  236,972;  226,877;    0,000
378,664;  233,188;  228,148;    0,000
379,255;  232,975;  226,948;    0,000
379,847;  231,283;  226,062;    0,000
380,438;  233,119;  223,162;    0,000
381,029;  225,495;  223,205;    0,000
381,620;  220,786;  220,105;    0,000
382,212;  215,701;  221,491;    0,000
382,803;  217,881;  219,491;    0,000
383,394;  210,717;  218,234;    0,000
383,985;  211,210;  215,306;    0,000
384,576;  208,064;  219,520;    0,000
385,167;  206,612;  216,706;    0,000
385,758;  207,970;  218,521;    0,000
386,349;  210,213;  214,407;    0,000
386,940;  210,344;  215,479;    0,000
387,531;  215,965;  220,393;    0,000
388,122;  217,693;  221,951;    0,000
388,713;  215,819;  214,109;    0,000
389,304;  213,396;  216,380;    0,000
389,895;  215,840;  215,895;    0,000
390,485;  221,585;  225,453;    0,000
391,076;  217,961;  220,339;    0,000
391,667;  220,056;  219,296;    0,000
392,258;  214,188;  217,654;    0,000
392,848;  214,247;  221,997;    0,000
393,439;  214,411;  216,911;    0,000
394,030;  211,395;  213,611;    0,000
394,620;  210,138;  210,539;    0,000
395,211;  211,149;  213,968;    0,000
395,801;  203,406;  212,382;    0,000
396,392;  204,737;  212,710;    0,000
396,982;  204,696;  212,795;    0,000
397,573;  210,658;  219,895;    0,000
398,163;  213,632;  223,795;    0,000
398,753;  205,121;  219,880;    0,000
399,344;  202,400;  216,523;    0,000
399,934;  202,266;  212,895;    0,000
400,524;  208,260;  213,852;    0,000
401,115;  209,074;  214,410;    0,000
401,705;  206,893;  207,352;    0,000
402,295;  208,789;  207,567;    0,000
402,885;  209,820;  205,610;    0,000
403,475;  215,961;  206,610;    0,000
404,065;  220,105;  207,595;    0,000
404,655;  217,248;  206,095;    0,000
405,245;  218,573;  203,409;    0,000
405,835;  219,417;  211,124;    0,000
406,425;  219,153;  211,652;    0,000
407,015;  220,725;  213,681;    0,000
407,605;  219,443;  216,495;    0,000
408,195;  214,616;  221,523;    0,000
408,785;  213,204;  221,809;    0,000
409,375;  211,590;  224,638;    0,000
409,965;  220,637;  223,695;    0,000
410,554;  226,644;  226,838;    0,000
411,144;  225,297;  229,466;    0,000
411,734;  224,463;  229,352;    0,000
412,324;  226,520;  226,666;    0,000
412,913;  229,042;  227,938;    0,000
413,503;  232,369;  232,009;    0,000
414,092;  227,518;  233,809;    0,000
414,682;  221,729;  230,552;    0,000
415,271;  217,211;  227,466;    0,000
415,861;  214,870;  224,352;    0,000
416,450;  217,202;  226,323;    0,000
417,040;  212,415;  225,923;    0,000
417,629;  208,204;  221,352;    0,000
418,219;  202,004;  218,009;    0,000
418,808;  198,936;  218,137;    0,000
419,397;  204,200;  218,195;    0,000
419,986;  209,123;  224,880;    0,000
420,576;  217,248;  226,266;    0,000
421,165;  223,236;  227,480;    0,000
421,754;  221,052;  223,623;    0,000
422,343;  230,342;  227,609;    0,000
422,932;  227,168;  224,694;    0,000
423,521;  225,384;  226,809;    0,000
424,111;  216,378;  220,352;    0,000
424,700;  208,273;  220,494;    0,000
425,289;  201,369;  218,980;    0,000
425,878;  201,856;  221,823;    0,000
426,466;  194,432;  217,809;    0,000
427,055;  197,785;  219,380;    0,000
427,644;  206,012;  219,766;    0,000
428,233;  213,110;  224,694;    0,000
428,822;  216,004;  222,209;    0,000
429,411;  219,938;  221,980;    0,000
429,999;  223,078;  225,352;    0,000
430,588;  223,945;  222,009;    0,000
431,177;  224,081;  222,495;    0,000
431,766;  219,821;  223,252;    0,000
432,354;  228,556;  223,766;    0,000
432,943;  233,991;  220,652;    0,000
433,531;  241,972;  222,280;    0,000
434,120;  255,786;  220,723;    0,000
434,708;  273,953;  224,952;    0,000
435,297;  289,898;  226,752;    0,000
435,885;  293,194;  223,309;    0,000
436,474;  283,546;  218,280;    0,000
437,062;  273,646;  218,380;    0,000
437,650;  267,958;  215,237;    0,000
438,239;  249,783;  210,866;    0,000
438,827;  231,506;  206,880;    0,000
439,415;  213,118;  202,723;    0,000
440,003;  204,089;  204,665;    0,000
440,592;  204,926;  205,523;    0,000
441,180;  203,584;  207,437;    0,000
441,768;  196,727;  206,123;    0,000
442,356;  202,383;  210,251;    0,000
442,944;  201,234;  214,151;    0,000
443,532;  208,242;  217,522;    0,000
444,120;  205,801;  211,722;    0,000
444,708;  200,459;  213,079;    0,000
445,296;  196,131;  211,108;    0,000
445,884;  200,150;  214,308;    0,000
446,472;  195,106;  213,351;    0,000
447,060;  193,538;  211,565;    0,000
447,647;  186,880;  210,394;    0,000
448,235;  193,330;  217,108;    0,000
448,823;  195,014;  215,479;    0,000
449,411;  197,139;  217,622;    0,000
449,998;  192,995;  214,865;    0,000
450,586;  199,599;  215,108;    0,000
451,173;  203,676;  219,051;    0,000
451,761;  208,989;  218,708;    0,000
452,349;  208,094;  219,294;    0,000
452,936;  210,748;  223,751;    0,000
453,524;  211,015;  222,765;    0,000
454,111;  213,448;  224,151;    0,000
454,698;  210,005;  224,951;    0,000
455,286;  212,747;  227,565;    0,000
455,873;  209,760;  229,751;    0,000
456,461;  210,011;  230,350;    0,000
457,048;  206,285;  227,193;    0,000
457,635;  206,554;  229,765;    0,000
458,222;  204,650;  232,650;    0,000
458,810;  208,245;  236,022;    0,000
459,397;  196,922;  227,307;    0,000
459,984;  199,894;  229,179;    0,000
460,571;  193,235;  223,807;    0,000
461,158;  190,092;  221,050;    0,000
461,745;  190,235;  219,465;    0,000
462,332;  190,099;  219,150;    0,000
462,919;  186,373;  216,507;    0,000
463,506;  195,025;  224,379;    0,000
464,093;  194,424;  221,208;    0,000
464,680;  198,799;  223,650;    0,000
465,267;  205,147;  227,936;    0,000
465,853;  207,389;  226,450;    0,000
466,440;  211,683;  228,150;    0,000
467,027;  212,413;  228,893;    0,000
467,614;  210,462;  224,979;    0,000
468,200;  214,173;  229,750;    0,000
468,787;  216,047;  227,607;    0,000
469,374;  217,574;  227,636;    0,000
469,960;  218,651;  230,007;    0,000
470,547;  220,976;  226,878;    0,000
471,133;  220,526;  223,678;    0,000
471,720;  219,526;  224,207;    0,000
472,306;  217,705;  224,064;    0,000
472,893;  215,491;  224,193;    0,000
473,479;  219,104;  228,793;    0,000
474,065;  213,656;  227,350;    0,000
474,652;  207,451;  229,721;    0,000
475,238;  207,109;  232,321;    0,000
475,824;  202,898;  227,664;    0,000
476,410;  210,558;  230,321;    0,000
476,997;  218,327;  234,007;    0,000
477,583;  214,900;  230,035;    0,000
478,169;  220,210;  231,707;    0,000
478,755;  225,887;  231,592;    0,000
479,341;  225,054;  226,593;    0,000
479,927;  229,504;  227,650;    0,000
480,513;  223,877;  225,593;    0,000
481,099;  215,317;  222,950;    0,000
481,685;  215,276;  223,607;    0,000
482,271;  217,756;  223,636;    0,000
482,857;  212,555;  218,550;    0,000
483,443;  220,000;  226,707;    0,000
484,028;  216,061;  224,193;    0,000
484,614;  217,533;  222,750;    0,000
485,200;  217,175;  217,993;    0,000
485,786;  221,523;  215,093;    0,000
486,371;  229,230;  218,564;    0,000
486,957;  234,518;  223,064;    0,000
487,543;  233,665;  220,421;    0,000
488,128;  239,409;  222,050;    0,000
488,714;  241,982;  222,778;    0,000
489,299;  250,000;  231,150;    0,000
489,885;  246,022;  229,264;    0,000
490,470;  243,700;  225,435;    0,000
491,055;  239,397;  222,307;    0,000
491,641;  238,910;  223,335;    0,000
492,226;  241,994;  230,850;    0,000
492,811;  232,645;  226,235;    0,000
493,397;  229,972;  227,092;    0,000
493,982;  229,789;  228,107;    0,000
494,567;  221,561;  229,449;    0,000
495,152;  220,508;  230,678;    0,000
495,738;  213,488;  227,464;    0,000
496,323;  209,846;  223,707;    0,000
496,908;  208,437;  226,849;    0,000
497,493;  202,898;  224,092;    0,000
498,078;  201,519;  225,635;    0,000
498,663;  199,592;  223,507;    0,000
499,248;  199,391;  221,935;    0,000
499,833;  195,453;  219,906;    0,000
500,417;  186,738;  216,335;    0,000
501,002;  186,683;  214,064;    0,000
501,587;  183,046;  209,635;    0,000
502,172;  182,266;  210,249;    0,000
502,757;  184,443;  208,278;    0,000
503,341;  184,590;  210,749;    0,000
503,926;  188,444;  209,249;    0,000
504,511;  193,169;  208,564;    0,000
505,095;  199,013;  217,449;    0,000
505,680;  200,297;  218,707;    0,000
506,264;  204,865;  227,364;    0,000
506,849;  189,579;  221,006;    0,000
507,433;  193,144;  225,364;    0,000
508,018;  195,310;  229,992;    0,000
508,602;  196,537;  232,764;    0,000
509,186;  193,127;  229,463;    0,000
509,771;  193,800;  228,206;    0,000
510,355;  193,460;  222,806;    0,000
510,939;  201,194;  225,792;    0,000
511,524;  201,763;  223,806;    0,000
512,108;  196,928;  222,192;    0,000
512,692;  200,436;  223,792;    0,000
513,276;  197,965;  216,921;    0,000
513,860;  201,701;  220,621;    0,000
514,444;  197,205;  217,878;    0,000
515,028;  201,563;  223,378;    0,000
515,612;  192,359;  219,278;    0,000
516,196;  195,288;  220,749;    0,000
516,780;  190,568;  221,721;    0,000
517,364;  194,241;  224,721;    0,000
517,948;  192,418;  227,335;    0,000
518,532;  192,802;  229,006;    0,000
519,115;  188,891;  225,778;    0,000
519,699;  196,909;  233,506;    0,000
520,283;  196,435;  233,835;    0,000
520,867;  197,321;  232,863;    0,000
521,450;  194,849;  233,049;    0,000
522,034;  195,646;  232,449;    0,000
522,617;  194,927;  232,763;    0,000
523,201;  195,379;  234,878;    0,000
523,784;  191,107;  228,478;    0,000
524,368;  189,543;  228,521;    0,000
524,951;  190,420;  229,592;    0,000
525,535;  191,372;  230,492;    0,000
526,118;  191,334;  230,692;    0,000
526,702;  191,058;  228,549;    0,000
527,285;  197,233;  234,235;    0,000
527,868;  202,419;  235,863;    0,000
528,451;  207,941;  235,778;    0,000
529,035;  209,993;  235,535;    0,000
529,618;  206,310;  235,349;    0,000
530,201;  208,190;  235,935;    0,000
530,784;  207,337;  236,220;    0,000
531,367;  211,768;  237,549;    0,000
531,950;  209,734;  237,292;    0,000
532,533;  213,593;  241,720;    0,000
533,116;  218,144;  246,406;    0,000
533,699;  220,180;  243,663;    0,000
534,282;  220,452;  240,777;    0,000
534,865;  220,006;  240,935;    0,000
535,448;  211,968;  233,877;    0,000
536,030;  214,561;  234,178;    0,000
536,613;  214,836;  232,035;    0,000
537,196;  218,035;  226,078;    0,000
537,778;  230,268;  229,835;    0,000
538,361;  251,209;  232,420;    0,000
538,944;  270,471;  234,006;    0,000
539,526;  300,164;  241,906;    0,000
540,109;  327,487;  245,577;    0,000
540,691;  348,343;  246,777;    0,000
541,274;  368,433;  250,606;    0,000
541,856;  384,946;  251,163;    0,000
542,439;  401,747;  256,892;    0,000
543,021;  414,116;  255,963;    0,000
543,603;  422,964;  255,406;    0,000
544,186;  430,101;  253,463;    0,000
544,768;  437,961;  255,734;    0,000
545,350;  441,362;  256,677;    0,000
545,932;  441,787;  254,977;    0,000
546,515;  427,650;  252,463;    0,000
547,097;  412,632;  251,834;    0,000
547,679;  395,167;  251,249;    0,000
548,261;  375,435;  254,135;    0,000
548,843;  352,194;  251,320;    0,000
549,425;  329,445;  247,335;    0,000
550,007;  309,631;  247,949;    0,000
550,589;  290,927;  245,863;    0,000
551,171;  279,185;  245,906;    0,000
551,752;  262,196;  241,363;    0,000
552,334;  246,381;  235,992;    0,000
552,916;  239,140;  236,534;    0,000
553,498;  229,240;  235,834;    0,000
554,079;  221,724;  230,792;    0,000
554,661;  217,198;  229,620;    0,000
555,243;  213,256;  229,777;    0,000
555,824;  213,501;  229,820;    0,000
556,406;  214,230;  228,706;    0,000
556,987;  210,371;  224,263;    0,000
557,569;  209,144;  226,063;    0,000
558,150;  209,772;  232,249;    0,000
558,732;  212,906;  234,977;    0,000
559,313;  213,016;  234,477;    0,000
559,894;  206,550;  232,192;    0,000
560,476;  203,534;  232,906;    0,000
561,057;  202,611;  233,134;    0,000
561,638;  208,016;  233,577;    0,000
562,219;  200,282;  225,320;    0,000
562,801;  196,221;  221,820;    0,000
563,382;  194,955;  222,463;    0,000
563,963;  201,049;  225,749;    0,000
564,544;  197,047;  225,077;    0,000
565,125;  195,503;  221,963;    0,000
565,706;  193,172;  223,892;    0,000
566,287;  196,562;  226,534;    0,000
566,868;  194,237;  225,206;    0,000
567,449;  195,260;  226,092;    0,000
568,030;  193,225;  223,720;    0,000
568,610;  195,300;  224,892;    0,000
569,191;  199,064;  228,234;    0,000
569,772;  198,826;  225,320;    0,000
570,353;  197,304;  222,906;    0,000
570,933;  204,701;  224,720;    0,000
571,514;  200,407;  220,634;    0,000
572,094;  200,231;  219,763;    0,000
572,675;  198,341;  216,063;    0,000
573,256;  197,279;  217,249;    0,000
573,836;  195,021;  214,777;    0,000
574,417;  201,933;  216,820;    0,000
574,997;  205,043;  220,763;    0,000
575,577;  212,959;  223,035;    0,000
576,158;  220,155;  227,606;    0,000
576,738;  234,651;  232,863;    0,000
577,318;  244,261;  233,806;    0,000
577,898;  256,401;  237,677;    0,000
578,479;  257,213;  239,520;    0,000
579,059;  255,650;  233,292;    0,000
579,639;  259,541;  234,849;    0,000
580,219;  260,907;  232,549;    0,000
580,799;  257,210;  227,677;    0,000
581,379;  250,268;  224,149;    0,000
581,959;  245,709;  222,834;    0,000
582,539;  249,475;  225,663;    0,000
583,119;  250,198;  227,049;    0,000
583,699;  251,620;  225,777;    0,000
584,279;  251,190;  224,291;    0,000
584,859;  261,224;  229,434;    0,000
585,438;  264,605;  229,092;    0,000
586,018;  268,897;  228,649;    0,000
586,598;  268,748;  225,220;    0,000
587,177;  269,961;  224,249;    0,000
587,757;  268,118;  225,434;    0,000
588,337;  273,275;  226,892;    0,000
588,916;  265,545;  225,335;    0,000
589,496;  266,250;  224,563;    0,000
590,075;  268,400;  227,549;    0,000
590,654;  268,968;  227,477;    0,000
591,234;  269,658;  227,492;    0,000
591,813;  274,498;  224,549;    0,000
592,393;  270,444;  222,263;    0,000
592,972;  273,473;  220,320;    0,000
593,551;  273,776;  224,592;    0,000
594,130;  266,071;  223,392;    0,000
594,710;  266,485;  225,863;    0,000
595,289;  263,321;  226,021;    0,000
595,868;  254,990;  226,106;    0,000
596,447;  252,754;  229,377;    0,000
597,026;  249,727;  233,377;    0,000
597,605;  248,542;  233,077;    0,000
598,184;  246,325;  226,720;    0,000
598,763;  245,118;  226,363;    0,000
599,342;  243,799;  228,020;    0,000
599,920;  245,340;  227,935;    0,000
600,499;  245,222;  229,935;    0,000
601,078;  240,596;  226,963;    0,000
601,657;  237,293;  225,892;    0,000
602,236;  236,086;  231,506;    0,000
602,814;  228,755;  228,034;    0,000
603,393;  231,243;  227,320;    0,000
603,971;  246,645;  230,706;    0,000
604,550;  247,572;  228,949;    0,000
605,128;  247,932;  227,678;    0,000
605,707;  255,620;  232,063;    0,000
606,285;  268,499;  229,363;    0,000
606,864;  293,418;  235,678;    0,000
607,442;  329,591;  238,178;    0,000
608,020;  371,838;  243,206;    0,000
608,599;  435,233;  247,206;    0,000
609,177;  508,892;  259,549;    0,000
609,755;  574,824;  259,506;    0,000
610,333;  639,834;  263,435;    0,000
610,912;  691,432;  267,721;    0,000
611,490;  714,346;  268,678;    0,000
612,068;  696,658;  265,064;    0,000
612,646;  665,861;  264,907;    0,000
613,224;  619,735;  258,864;    0,000
613,802;  568,313;  254,378;    0,000
614,380;  506,377;  252,764;    0,000
614,958;  446,936;  246,435;    0,000
615,535;  392,784;  242,107;    0,000
616,113;  357,061;  239,492;    0,000
616,691;  324,609;  234,492;    0,000
617,269;  299,183;  229,807;    0,000
617,846;  284,192;  231,592;    0,000
618,424;  272,245;  228,307;    0,000
619,002;  262,878;  227,735;    0,000
619,579;  256,054;  228,635;    0,000
620,157;  263,965;  230,607;    0,000
620,734;  270,143;  233,793;    0,000
621,312;  268,448;  235,050;    0,000
621,889;  268,609;  233,207;    0,000
622,467;  270,929;  235,935;    0,000
623,044;  271,700;  237,493;    0,000
623,621;  271,710;  238,264;    0,000
624,198;  263,850;  236,035;    0,000
624,776;  255,160;  232,492;    0,000
625,353;  256,454;  231,193;    0,000
625,930;  252,247;  232,050;    0,000
626,507;  253,449;  232,178;    0,000
627,084;  255,603;  229,836;    0,000
627,661;  257,140;  226,978;    0,000
628,238;  257,248;  227,193;    0,000
628,815;  261,063;  227,364;    0,000
629,392;  261,159;  226,864;    0,000
629,969;  267,425;  229,936;    0,000
630,546;  266,593;  230,907;    0,000
631,123;  262,007;  233,536;    0,000
631,700;  260,038;  235,021;    0,000
632,276;  252,689;  233,564;    0,000
632,853;  245,279;  235,536;    0,000
633,430;  241,165;  236,522;    0,000
634,006;  226,670;  233,165;    0,000
634,583;  226,185;  232,979;    0,000
635,160;  219,640;  230,636;    0,000
635,736;  216,178;  230,479;    0,000
636,313;  213,158;  227,636;    0,000
636,889;  210,283;  226,365;    0,000
637,466;  210,765;  230,322;    0,000
638,042;  208,790;  231,679;    0,000
638,618;  200,523;  229,593;    0,000
639,194;  198,328;  226,265;    0,000
639,771;  193,416;  224,193;    0,000
640,347;  197,757;  231,536;    0,000
640,923;  196,431;  229,193;    0,000
641,499;  193,062;  225,650;    0,000
642,075;  196,222;  224,379;    0,000
642,651;  195,067;  224,979;    0,000
643,227;  197,627;  228,321;    0,000
643,803;  201,001;  232,336;    0,000
644,379;  196,889;  229,521;    0,000
644,955;  197,321;  229,036;    0,000
645,531;  200,666;  230,207;    0,000
646,107;  198,783;  231,221;    0,000
646,683;  196,271;  227,407;    0,000
647,259;  196,817;  226,507;    0,000
647,834;  199,177;  224,978;    0,000
648,410;  204,194;  222,407;    0,000
648,986;  209,639;  222,921;    0,000
649,561;  207,656;  224,221;    0,000
650,137;  210,559;  220,850;    0,000
650,712;  209,875;  222,107;    0,000
651,288;  209,621;  222,236;    0,000
651,863;  207,895;  223,893;    0,000
652,439;  202,269;  223,635;    0,000
653,014;  200,086;  225,121;    0,000
653,589;  197,917;  220,478;    0,000
654,165;  195,920;  221,807;    0,000
654,740;  200,365;  222,593;    0,000
655,315;  199,168;  220,650;    0,000
655,890;  201,328;  224,564;    0,000
656,465;  200,459;  222,878;    0,000
657,040;  193,047;  218,607;    0,000
657,616;  187,750;  215,378;    0,000
658,191;  188,981;  216,964;    0,000
658,766;  193,012;  218,935;    0,000
659,340;  189,101;  217,464;    0,000
659,915;  189,275;  214,678;    0,000
660,490;  191,749;  215,907;    0,000
661,065;  193,766;  218,321;    0,000
661,640;  194,582;  217,907;    0,000
662,215;  191,757;  216,335;    0,000
662,789;  186,616;  216,935;    0,000
663,364;  186,747;  218,078;    0,000
663,939;  179,336;  213,135;    0,000
664,513;  177,938;  215,878;    0,000
665,088;  181,655;  213,878;    0,000
665,662;  184,501;  218,521;    0,000
666,237;  188,461;  219,792;    0,000
666,811;  184,463;  215,949;    0,000
667,385;  187,523;  217,964;    0,000
667,960;  188,697;  217,635;    0,000
668,534;  184,457;  214,821;    0,000
669,108;  181,031;  215,835;    0,000
669,683;  178,876;  212,049;    0,000
670,257;  172,536;  208,821;    0,000
670,831;  171,324;  206,606;    0,000
671,405;  168,799;  206,049;    0,000
671,979;  166,787;  204,549;    0,000
672,553;  170,018;  204,863;    0,000
673,127;  173,664;  205,463;    0,000
673,701;  169,509;  203,578;    0,000
674,275;  168,755;  202,778;    0,000
674,849;  171,057;  205,663;    0,000
675,423;  169,160;  202,792;    0,000
675,997;  171,762;  204,120;    0,000
676,570;  170,865;  204,692;    0,000
677,144;  167,468;  203,692;    0,000
677,718;  172,742;  208,406;    0,000
678,292;  174,144;  210,792;    0,000
678,865;  173,618;  210,035;    0,000
679,439;  179,392;  212,649;    0,000
680,012;  178,581;  213,135;    0,000
680,586;  177,798;  212,277;    0,000
681,159;  174,757;  212,077;    0,000
681,733;  176,332;  212,735;    0,000
682,306;  178,548;  211,477;    0,000
682,879;  178,908;  212,549;    0,000
683,453;  177,239;  211,035;    0,000
684,026;  179,899;  212,492;    0,000
684,599;  182,088;  212,163;    0,000
685,172;  189,076;  214,749;    0,000
685,745;  189,450;  214,649;    0,000
686,318;  193,081;  214,606;    0,000
686,891;  191,327;  212,977;    0,000
687,464;  189,386;  215,749;    0,000
688,037;  190,132;  215,877;    0,000
688,610;  189,920;  214,549;    0,000
689,183;  186,894;  213,749;    0,000
689,756;  185,054;  213,049;    0,000
690,329;  180,042;  212,234;    0,000
690,902;  186,345;  214,563;    0,000
691,474;  188,705;  212,749;    0,000
692,047;  185,436;  209,991;    0,000
692,620;  187,624;  215,291;    0,000
693,192;  188,084;  216,191;    0,000
693,765;  189,301;  214,806;    0,000
694,337;  187,404;  213,548;    0,000
694,910;  184,035;  216,891;    0,000
695,482;  183,523;  220,106;    0,000
696,055;  183,911;  221,791;    0,000
696,627;  183,471;  222,677;    0,000
697,199;  175,245;  216,391;    0,000
697,772;  170,705;  216,034;    0,000
698,344;  172,679;  217,105;    0,000
698,916;  167,639;  210,563;    0,000
699,488;  169,242;  209,034;    0,000
700,060;  167,844;  207,105;    0,000
700,633;  163,247;  204,477;    0,000
701,205;  168,335;  207,491;    0,000
701,777;  174,052;  212,491;    0,000
702,349;  175,212;  214,120;    0,000
702,920;  184,329;  216,891;    0,000
703,492;  187,346;  214,562;    0,000
704,064;  189,234;  215,391;    0,000
704,636;  198,751;  214,505;    0,000
705,208;  203,753;  212,420;    0,000
705,779;  205,713;  208,420;    0,000
706,351;  211,544;  206,962;    0,000
706,923;  211,490;  202,348;    0,000
707,494;  213,207;  202,820;    0,000
708,066;  222,167;  202,134;    0,000
708,638;  222,598;  201,048;    0,000
709,209;  224,015;  204,191;    0,000
709,780;  223,446;  202,805;    0,000
710,352;  218,863;  202,248;    0,000
710,923;  221,765;  209,634;    0,000
711,494;  215,754;  208,148;    0,000
712,066;  211,042;  211,062;    0,000
712,637;  202,445;  209,634;    0,000
713,208;  201,833;  210,776;    0,000
713,779;  200,293;  211,776;    0,000
714,350;  196,010;  212,076;    0,000
714,922;  192,198;  208,934;    0,000
715,492;  191,172;  210,976;    0,000
716,064;  184,732;  208,076;    0,000
716,634;  185,206;  206,991;    0,000
717,205;  186,780;  210,791;    0,000
717,776;  185,626;  210,891;    0,000
718,347;  190,300;  214,062;    0,000
718,918;  190,216;  212,462;    0,000
719,489;  193,591;  212,076;    0,000
720,059;  193,579;  212,176;    0,000
720,630;  194,539;  214,291;    0,000
721,201;  191,856;  211,391;    0,000
721,771;  192,530;  213,290;    0,000
722,342;  193,089;  213,276;    0,000
722,912;  189,335;  213,576;    0,000
723,483;  186,909;  213,419;    0,000
724,053;  192,640;  217,576;    0,000
724,623;  190,486;  217,248;    0,000
725,194;  189,560;  217,033;    0,000
725,764;  190,277;  218,348;    0,000
726,334;  192,308;  216,405;    0,000
726,904;  191,453;  215,476;    0,000
727,475;  196,370;  220,133;    0,000
728,045;  193,344;  216,376;    0,000
728,615;  194,447;  215,262;    0,000
729,185;  198,564;  216,119;    0,000
729,755;  195,766;  212,562;    0,000
730,325;  191,855;  211,647;    0,000
730,895;  194,829;  213,076;    0,000
731,465;  190,746;  208,104;    0,000
732,034;  192,705;  209,533;    0,000
732,604;  195,308;  213,033;    0,000
733,174;  193,011;  210,919;    0,000
733,744;  193,785;  210,119;    0,000
734,313;  197,902;  213,833;    0,000
734,883;  194,419;  211,304;    0,000
735,453;  194,693;  214,276;    0,000
736,022;  192,110;  212,647;    0,000
736,592;  194,398;  214,076;    0,000
737,161;  195,601;  217,247;    0,000
737,731;  207,417;  220,419;    0,000
738,300;  206,263;  218,747;    0,000
738,869;  210,423;  221,304;    0,000
739,439;  213,925;  215,819;    0,000
740,008;  220,299;  218,018;    0,000
740,577;  217,559;  215,518;    0,000
741,146;  217,262;  215,904;    0,000
741,715;  210,493;  212,618;    0,000
742,284;  210,496;  212,790;    0,000
742,853;  210,341;  212,933;    0,000
743,422;  209,515;  215,847;    0,000
743,991;  204,261;  212,004;    0,000
744,560;  207,135;  211,747;    0,000
745,129;  206,652;  208,161;    0,000
745,698;  203,868;  210,304;    0,000
746,267;  204,314;  210,475;    0,000
746,836;  201,745;  208,575;    0,000
747,404;  209,533;  213,218;    0,000
747,973;  212,836;  218,418;    0,000
748,542;  213,510;  216,818;    0,000
749,110;  218,656;  219,090;    0,000
749,679;  219,587;  219,547;    0,000
750,247;  216,504;  215,718;    0,000
750,816;  220,949;  218,390;    0,000
751,384;  215,995;  212,518;    0,000
751,952;  216,397;  210,090;    0,000
752,521;  214,986;  210,961;    0,000
753,089;  209,888;  209,218;    0,000
753,657;  210,662;  208,032;    0,000
754,225;  215,636;  210,547;    0,000
754,794;  220,210;  210,218;    0,000
755,362;  223,442;  212,404;    0,000
755,930;  232,501;  216,261;    0,000
756,498;  236,561;  215,618;    0,000
757,066;  243,678;  215,989;    0,000
757,634;  253,709;  219,032;    0,000
758,202;  256,469;  221,104;    0,000
758,769;  261,043;  225,932;    0,000
759,337;  259,674;  228,218;    0,000
759,905;  250,734;  223,632;    0,000
760,473;  252,708;  226,118;    0,000
761,041;  245,497;  223,332;    0,000
761,608;  239,542;  221,304;    0,000
762,176;  241,630;  222,818;    0,000
762,743;  232,333;  217,846;    0,000
763,311;  230,578;  212,075;    0,000
763,878;  233,610;  212,746;    0,000
764,446;  229,355;  210,661;    0,000
765,013;  235,072;  212,918;    0,000
765,581;  236,589;  213,218;    0,000
766,148;  234,763;  209,975;    0,000
766,715;  238,637;  208,361;    0,000
767,282;  240,140;  213,032;    0,000
767,849;  239,571;  212,660;    0,000
768,417;  240,431;  213,232;    0,000
768,984;  235,090;  211,718;    0,000
769,551;  234,007;  210,046;    0,000
770,118;  230,496;  206,889;    0,000
770,685;  228,055;  205,575;    0,000
771,252;  222,687;  200,889;    0,000
771,819;  225,061;  201,703;    0,000
772,385;  227,706;  198,446;    0,000
772,952;  227,537;  197,046;    0,000
773,519;  227,240;  197,117;    0,000
774,086;  229,200;  197,932;    0,000
774,652;  230,460;  196,932;    0,000
775,219;  233,205;  198,746;    0,000
775,786;  234,808;  199,489;    0,000
776,352;  232,582;  201,303;    0,000
776,919;  243,199;  209,332;    0,000
777,485;  247,358;  212,532;    0,000
778,051;  251,761;  216,789;    0,000
778,618;  256,364;  218,746;    0,000
779,184;  257,523;  215,674;    0,000
779,750;  262,369;  215,846;    0,000
780,317;  267,257;  218,517;    0,000
780,883;  264,446;  214,874;    0,000
781,449;  263,091;  214,174;    0,000
782,015;  266,665;  215,617;    0,000
782,581;  267,296;  218,317;    0,000
783,147;  270,399;  221,803;    0,000
783,713;  266,344;  223,646;    0,000
784,279;  271,918;  227,474;    0,000
784,845;  273,721;  226,131;    0,000
785,411;  278,181;  228,474;    0,000
785,977;  273,569;  223,503;    0,000
786,542;  275,372;  224,231;    0,000
787,108;  276,232;  225,088;    0,000
787,674;  278,134;  223,146;    0,000
788,239;  275,665;  221,131;    0,000
788,805;  276,154;  222,660;    0,000
789,371;  276,856;  222,760;    0,000
789,936;  280,188;  221,217;    0,000
790,501;  281,933;  221,631;    0,000
791,067;  281,407;  221,617;    0,000
791,632;  278,581;  218,945;    0,000
792,198;  279,512;  219,488;    0,000
792,763;  278,686;  217,431;    0,000
793,328;  278,432;  214,231;    0,000
793,893;  275,177;  215,360;    0,000
794,458;  272,523;  211,674;    0,000
795,024;  274,254;  211,045;    0,000
795,589;  275,771;  211,545;    0,000
796,154;  275,345;  208,717;    0,000
796,719;  280,433;  208,645;    0,000
797,284;  279,679;  210,217;    0,000
797,848;  283,653;  209,745;    0,000
798,413;  288,927;  214,088;    0,000
798,978;  293,044;  217,388;    0,000
799,543;  291,961;  217,588;    0,000
800,108;  293,221;  219,531;    0,000
800,672;  291,523;  221,131;    0,000
801,237;  298,354;  219,088;    0,000
801,801;  303,928;  224,417;    0,000
802,366;  306,188;  221,888;    0,000
802,930;  305,391;  218,831;    0,000
803,495;  313,565;  224,145;    0,000
804,059;  314,153;  222,874;    0,000
804,624;  315,142;  221,659;    0,000
805,188;  310,930;  223,702;    0,000
805,752;  314,990;  221,974;    0,000
806,317;  311,092;  221,788;    0,000
806,881;  314,123;  223,131;    0,000
807,445;  310,740;  216,816;    0,000
808,009;  314,000;  220,302;    0,000
808,573;  317,746;  221,559;    0,000
809,137;  319,505;  221,402;    0,000
809,701;  313,094;  221,616;    0,000
810,265;  317,725;  220,688;    0,000
810,829;  313,513;  216,388;    0,000
811,393;  313,187;  217,116;    0,000
811,956;  308,619;  213,416;    0,000
812,520;  305,750;  212,188;    0,000
813,084;  304,281;  208,659;    0,000
813,647;  304,655;  205,902;    0,000
814,211;  302,429;  206,116;    0,000
814,775;  304,332;  207,559;    0,000
815,338;  309,191;  209,459;    0,000
815,902;  314,480;  209,330;    0,000
816,465;  316,554;  210,245;    0,000
817,029;  323,456;  213,345;    0,000
817,592;  325,359;  214,130;    0,000
818,155;  331,176;  219,102;    0,000
818,718;  335,436;  221,730;    0,000
819,282;  337,481;  221,345;    0,000
819,845;  340,898;  224,187;    0,000
820,408;  341,829;  225,659;    0,000
820,971;  338,718;  226,116;    0,000
821,534;  345,863;  230,387;    0,000
822,097;  342,709;  227,145;    0,000
822,660;  344,511;  228,587;    0,000
823,223;  344,485;  227,216;    0,000
823,786;  345,031;  225,959;    0,000
824,349;  346,176;  224,387;    0,000
824,911;  347,150;  219,687;    0,000
825,474;  343,582;  217,430;    0,000
826,037;  348,327;  219,573;    0,000
826,599;  355,058;  221,673;    0,000
827,162;  354,118;  222,673;    0,000
827,724;  352,549;  220,873;    0,000
828,287;  353,238;  223,359;    0,000
828,849;  353,154;  225,773;    0,000
829,412;  354,771;  225,916;    0,000
829,974;  355,617;  226,630;    0,000
830,536;  346,905;  221,630;    0,000
831,099;  346,979;  219,930;    0,000
831,661;  355,210;  222,501;    0,000
832,223;  355,527;  220,516;    0,000
832,785;  355,373;  218,044;    0,000
833,347;  356,447;  216,258;    0,000
833,909;  355,778;  213,658;    0,000
834,471;  364,895;  218,544;    0,000
835,033;  365,812;  220,444;    0,000
835,595;  360,357;  222,887;    0,000
836,157;  366,174;  224,758;    0,000
836,719;  369,491;  226,344;    0,000
837,281;  367,008;  226,244;    0,000
837,842;  371,525;  230,130;    0,000
838,404;  371,356;  227,615;    0,000
838,966;  373,573;  225,501;    0,000
839,527;  371,661;  217,387;    0,000
840,089;  367,407;  212,530;    0,000
840,650;  369,967;  213,287;    0,000
841,212;  374,512;  212,330;    0,000
841,773;  372,015;  207,844;    0,000
842,335;  367,460;  204,958;    0,000
842,896;  369,463;  205,144;    0,000
843,457;  375,437;  208,101;    0,000
844,018;  380,425;  212,244;    0,000
844,580;  379,999;  213,601;    0,000
845,141;  380,516;  212,401;    0,000
845,702;  381,819;  211,844;    0,000
846,263;  387,779;  212,315;    0,000
846,824;  387,738;  211,787;    0,000
847,385;  387,841;  211,958;    0,000
847,946;  386,829;  208,801;    0,000
848,507;  393,218;  210,215;    0,000
849,068;  391,820;  207,958;    0,000
849,628;  388,766;  203,158;    0,000
850,189;  384,783;  199,515;    0,000
850,750;  385,157;  201,586;    0,000
851,310;  387,545;  200,058;    0,000
851,871;  388,605;  200,001;    0,000
852,432;  383,179;  195,144;    0,000
852,992;  387,582;  201,329;    0,000
853,552;  390,470;  202,686;    0,000
854,113;  396,144;  206,858;    0,000
854,673;  398,775;  204,643;    0,000
855,234;  397,035;  204,786;    0,000
855,794;  405,995;  210,686;    0,000
856,354;  407,940;  210,286;    0,000
856,914;  408,686;  207,915;    0,000
857,474;  411,574;  209,786;    0,000
858,034;  414,605;  209,858;    0,000
858,595;  419,279;  213,458;    0,000
859,155;  420,582;  213,015;    0,000
859,714;  419,870;  207,800;    0,000
860,274;  425,844;  210,115;    0,000
860,834;  429,218;  208,658;    0,000
861,394;  430,350;  209,858;    0,000
861,954;  430,395;  210,472;    0,000
862,514;  434,255;  209,243;    0,000
863,073;  439,686;  212,086;    0,000
863,633;  435,274;  210,843;    0,000
864,192;  430,234;  208,229;    0,000
864,752;  428,865;  206,757;    0,000
865,311;  432,654;  205,300;    0,000
865,871;  431,171;  201,572;    0,000
866,430;  428,045;  200,000;    0,000
866,990;  425,847;  197,857;    0,000
867,549;  430,364;  196,529;    0,000
868,108;  436,653;  198,657;    0,000
868,667;  441,141;  201,500;    0,000
869,227;  448,743;  203,014;    0,000
869,786;  450,446;  205,643;    0,000
870,345;  454,392;  204,572;    0,000
870,904;  458,294;  199,229;    0,000
871,463;  458,597;  200,000;    0,000
872,022;  460,514;  201,257;    0,000
872,581;  459,788;  198,114;    0,000
873,140;  452,919;  194,157;    0,000
873,698;  456,193;  191,771;    0,000
874,257;  455,724;  193,129;    0,000
874,816;  455,124;  194,957;    0,000
875,374;  456,481;  193,657;    0,000
875,933;  457,824;  190,514;    0,000
876,492;  462,553;  194,557;    0,000
877,050;  464,096;  194,471;    0,000
877,609;  467,696;  195,200;    0,000
878,167;  467,596;  191,029;    0,000
878,725;  467,981;  194,157;    0,000
879,284;  471,510;  199,443;    0,000
879,842;  469,624;  195,786;    0,000
880,400;  472,639;  194,943;    0,000
880,958;  476,096;  195,043;    0,000
881,517;  481,410;  196,829;    0,000
882,075;  486,481;  200,986;    0,000
882,633;  491,653;  198,929;    0,000
883,191;  494,839;  196,043;    0,000
883,749;  506,124;  199,757;    0,000
884,307;  506,810;  201,371;    0,000
884,865;  512,067;  203,943;    0,000
885,422;  510,553;  202,986;    0,000
885,980;  515,567;  205,257;    0,000
886,538;  519,024;  206,586;    0,000
887,095;  523,296;  206,914;    0,000
887,653;  518,781;  204,743;    0,000
888,211;  529,167;  207,300;    0,000
888,768;  530,210;  208,000;    0,000
889,326;  535,739;  208,129;    0,000
889,883;  539,996;  205,600;    0,000
890,441;  544,224;  204,671;    0,000
890,998;  547,410;  208,143;    0,000
891,555;  554,624;  215,100;    0,000
892,112;  551,239;  210,614;    0,000
892,670;  561,953;  213,271;    0,000
893,227;  560,196;  210,914;    0,000
893,784;  559,339;  210,986;    0,000
894,341;  564,967;  215,586;    0,000
894,898;  572,453;  213,829;    0,000
895,455;  575,324;  212,043;    0,000
896,012;  576,139;  211,657;    0,000
896,569;  572,367;  209,643;    0,000
897,126;  579,181;  213,386;    0,000
897,682;  582,667;  213,429;    0,000
898,239;  586,167;  212,400;    0,000
898,796;  583,624;  212,557;    0,000
899,352;  588,181;  211,557;    0,000
899,909;  591,796;  213,743;    0,000
900,466;  595,467;  214,857;    0,000
901,022;  601,296;  216,971;    0,000
901,579;  603,053;  216,843;    0,000
902,135;  603,039;  212,614;    0,000
902,691;  606,024;  213,471;    0,000
903,248;  605,310;  212,471;    0,000
903,804;  606,467;  209,729;    0,000
904,360;  607,624;  209,886;    0,000
904,916;  624,610;  207,929;    0,000
905,472;  627,181;  210,529;    0,000
906,028;  625,767;  212,971;    0,000
906,584;  625,881;  210,543;    0,000
907,140;  626,724;  210,457;    0,000
907,696;  627,967;  210,314;    0,000
908,252;  630,724;  208,843;    0,000
908,808;  617,524;  207,071;    0,000
909,364;  620,067;  206,514;    0,000
909,920;  625,681;  207,514;    0,000
910,475;  628,953;  207,671;    0,000
911,031;  633,681;  208,000;    0,000
911,587;  635,124;  206,443;    0,000
912,142;  639,867;  206,114;    0,000
912,698;  638,024;  206,100;    0,000
913,253;  638,067;  201,814;    0,000
913,808;  636,524;  201,729;    0,000
914,364;  636,124;  199,386;    0,000
914,919;  639,996;  202,471;    0,000
915,474;  649,210;  207,086;    0,000
916,030;  645,381;  205,857;    0,000
916,585;  651,467;  207,214;    0,000
917,140;  653,396;  208,057;    0,000
917,695;  653,696;  205,657;    0,000
918,250;  662,810;  206,371;    0,000
918,805;  659,567;  201,357;    0,000
919,360;  658,296;  198,986;    0,000
919,915;  663,410;  200,171;    0,000
920,469;  663,910;  200,386;    0,000
921,024;  669,496;  199,814;    0,000
921,579;  676,567;  201,971;    0,000
922,134;  673,053;  201,729;    0,000
922,688;  676,896;  205,657;    0,000
923,243;  681,081;  209,543;    0,000
923,797;  683,310;  208,443;    0,000
924,352;  682,124;  208,786;    0,000
924,906;  683,924;  210,929;    0,000
925,461;  685,210;  210,800;    0,000
926,015;  686,496;  208,329;    0,000
926,569;  687,710;  204,857;    0,000
927,124;  691,167;  204,686;    0,000
927,678;  698,153;  207,986;    0,000
928,232;  703,610;  208,729;    0,000
928,786;  703,739;  209,143;    0,000
929,340;  708,224;  211,914;    0,000
929,894;  711,353;  212,543;    0,000
930,448;  714,524;  214,843;    0,000
931,002;  713,981;  214,729;    0,000
931,556;  709,239;  212,443;    0,000
932,110;  707,410;  208,286;    0,000
932,663;  711,781;  208,514;    0,000
933,217;  714,296;  205,686;    0,000
933,771;  719,453;  208,343;    0,000
934,324;  726,210;  206,286;    0,000
934,878;  726,953;  201,157;    0,000
935,432;  729,924;  202,514;    0,000
935,985;  738,553;  204,286;    0,000
936,538;  744,724;  204,214;    0,000
937,092;  744,310;  202,757;    0,000
937,645;  745,824;  201,729;    0,000
938,198;  746,867;  205,800;    0,000
938,752;  755,081;  209,871;    0,000
939,305;  757,881;  212,057;    0,000
939,858;  756,153;  212,114;    0,000
940,411;  760,996;  214,443;    0,000
940,964;  765,667;  216,486;    0,000
941,517;  769,481;  218,729;    0,000
942,070;  770,353;  218,443;    0,000
942,623;  768,539;  217,186;    0,000
943,176;  772,367;  215,529;    0,000
943,728;  771,439;  215,586;    0,000
944,281;  765,210;  210,157;    0,000
944,834;  768,353;  210,443;    0,000
945,387;  764,639;  207,214;    0,000
945,939;  769,653;  205,114;    0,000
946,492;  772,124;  205,143;    0,000
947,044;  770,296;  203,757;    0,000
947,597;  776,310;  203,514;    0,000
948,149;  776,296;  205,286;    0,000
948,701;  774,667;  203,514;    0,000
949,254;  780,339;  207,557;    0,000
949,806;  782,567;  207,900;    0,000
950,358;  786,067;  208,786;    0,000
950,910;  791,267;  207,943;    0,000
951,462;  786,924;  206,043;    0,000
952,014;  794,467;  208,657;    0,000
952,566;  794,581;  207,143;    0,000
953,118;  795,739;  206,486;    0,000
953,670;  791,710;  205,100;    0,000
954,222;  790,167;  202,457;    0,000
954,774;  787,596;  203,357;    0,000
955,326;  791,010;  204,314;    0,000
955,877;  790,496;  203,571;    0,000
956,429;  794,539;  207,714;    0,000
956,981;  795,110;  207,343;    0,000
957,532;  800,296;  207,314;    0,000
958,084;  803,853;  207,986;    0,000
958,635;  811,010;  209,729;    0,000
959,187;  819,067;  211,943;    0,000
959,738;  824,381;  211,371;    0,000
960,289;  828,981;  211,629;    0,000
960,840;  836,610;  208,471;    0,000
961,392;  843,410;  212,014;    0,000
961,943;  841,596;  210,700;    0,000
962,494;  840,781;  208,157;    0,000
963,045;  838,824;  205,386;    0,000
963,596;  839,253;  207,114;    0,000
964,147;  842,324;  204,643;    0,000
964,698;  839,267;  206,829;    0,000
965,249;  834,453;  205,843;    0,000
965,800;  833,253;  205,357;    0,000
966,350;  838,881;  207,714;    0,000
966,901;  837,867;  205,414;    0,000
967,452;  837,053;  201,671;    0,000
968,002;  837,396;  203,143;    0,000
968,553;  839,410;  203,243;    0,000
969,103;  841,081;  199,829;    0,000
969,654;  846,981;  200,971;    0,000
970,204;  844,381;  196,071;    0,000
970,755;  856,224;  201,929;    0,000
971,305;  851,096;  198,600;    0,000
971,855;  854,167;  199,529;    0,000
972,405;  856,181;  200,386;    0,000
972,956;  859,210;  202,300;    0,000
973,506;  856,124;  200,243;    0,000
974,056;  861,367;  205,757;    0,000
974,606;  859,410;  204,800;    0,000
975,156;  870,167;  212,000;    0,000
975,706;  869,953;  210,557;    0,000
976,255;  869,610;  208,914;    0,000
976,805;  865,424;  203,643;    0,000
977,355;  864,324;  202,271;    0,000
977,905;  863,053;  198,400;    0,000
978,454;  853,081;  193,571;    0,000
979,004;  850,367;  190,200;    0,000
979,554;  841,867;  183,971;    0,000
980,103;  840,296;  183,571;    0,000
980,653;  840,553;  188,286;    0,000
981,202;  845,639;  191,814;    0,000
981,751;  845,367;  192,229;    0,000
982,301;  853,267;  193,257;    0,000
982,850;  852,381;  195,100;    0,000
983,399;  857,010;  199,629;    0,000
983,948;  858,967;  197,286;    0,000
984,497;  858,796;  196,686;    0,000
985,047;  862,724;  197,186;    0,000
985,596;  855,910;  192,486;    0,000
986,144;  852,967;  192,314;    0,000
986,693;  852,924;  189,443;    0,000
987,242;  852,424;  188,129;    0,000
987,791;  848,139;  188,286;    0,000
988,340;  846,039;  186,943;    0,000
988,888;  842,896;  185,471;    0,000
989,437;  845,181;  189,371;    0,000
989,986;  848,224;  188,657;    0,000
990,534;  851,410;  191,471;    0,000
991,083;  848,110;  190,871;    0,000
991,631;  858,024;  196,000;    0,000
992,180;  860,653;  195,171;    0,000
992,728;  865,110;  197,200;    0,000
993,276;  868,410;  198,900;    0,000
993,825;  873,767;  202,886;    0,000
994,373;  870,353;  202,086;    0,000
994,921;  875,781;  204,029;    0,000
995,469;  867,653;  200,571;    0,000
996,017;  870,310;  203,457;    0,000
996,565;  864,624;  200,757;    0,000
997,113;  862,096;  197,871;    0,000
997,661;  857,639;  199,429;    0,000
998,209;  855,867;  197,343;    0,000
998,757;  857,210;  198,371;    0,000
999,304;  862,153;  203,157;    0,000
999,852;  860,953;  201,429;    0,000
1000,400;  860,810;  203,300;    0,000
1000,947;  863,796;  205,343;    0,000
1001,495;  859,081;  203,743;    0,000
1002,042;  860,481;  206,457;    0,000
1002,590;  860,867;  206,086;    0,000
1003,137;  857,567;  204,214;    0,000
1003,684;  858,581;  208,486;    0,000
1004,232;  858,024;  208,729;    0,000
1004,779;  853,410;  208,643;    0,000
1005,326;  852,624;  206,757;    0,000
1005,873;  849,867;  207,143;    0,000
1006,420;  850,367;  211,114;    0,000
1006,967;  844,096;  206,957;    0,000
1007,514;  840,981;  203,314;    0,000
1008,061;  837,653;  201,657;    0,000
1008,608;  835,739;  203,329;    0,000
1009,155;  842,996;  207,614;    0,000
1009,702;  840,139;  205,000;    0,000
1010,248;  831,853;  202,100;    0,000
1010,795;  834,067;  204,300;    0,000
1011,342;  836,467;  208,243;    0,000
1011,888;  841,753;  210,971;    0,000
1012,435;  843,667;  210,100;    0,000
1012,981;  837,881;  208,757;    0,000
1013,528;  842,624;  211,629;    0,000
1014,074;  846,824;  213,329;    0,000
1014,620;  851,253;  216,514;    0,000
1015,166;  848,724;  216,100;    0,000
1015,713;  846,653;  215,086;    0,000
1016,259;  843,853;  214,414;    0,000
1016,805;  839,767;  212,086;    0,000
1017,351;  838,196;  210,986;    0,000
1017,897;  830,139;  207,929;    0,000
1018,443;  820,539;  203,700;    0,000
1018,989;  816,853;  201,800;    0,000
1019,535;  816,010;  202,029;    0,000
1020,080;  814,124;  201,886;    0,000
1020,626;  812,481;  204,200;    0,000
1021,172;  809,939;  203,843;    0,000
1021,717;  807,639;  202,200;    0,000
1022,263;  812,781;  206,886;    0,000
1022,809;  810,253;  206,486;    0,000
1023,354;  805,910;  209,643;    0,000
1023,900;  796,596;  205,900;    0,000
1024,445;  789,096;  202,114;    0,000
1024,990;  784,024;  201,914;    0,000
1025,536;  784,167;  203,629;    0,000
1026,081;  775,139;  198,914;    0,000
1026,626;  766,353;  197,157;    0,000
1027,171;  757,539;  194,043;    0,000
1027,716;  761,524;  198,900;    0,000
1028,261;  760,210;  198,414;    0,000
1028,806;  755,224;  199,357;    0,000
1029,351;  749,239;  199,557;    0,000
1029,896;  748,810;  204,486;    0,000
1030,441;  744,639;  204,186;    0,000
1030,985;  741,210;  202,729;    0,000
1031,530;  734,510;  199,843;    0,000
1032,075;  731,453;  199,386;    0,000
1032,619;  732,981;  202,371;    0,000
1033,164;  731,767;  199,014;    0,000
1033,708;  728,010;  196,229;    0,000
1034,253;  725,910;  195,171;    0,000
1034,797;  723,296;  196,900;    0,000
1035,341;  720,710;  196,300;    0,000
1035,886;  717,139;  198,214;    0,000
1036,430;  708,481;  194,886;    0,000
1036,974;  703,896;  200,843;    0,000
1037,518;  693,496;  199,957;    0,000
1038,062;  688,853;  200,200;    0,000
1038,606;  684,453;  198,786;    0,000
1039,150;  680,953;  198,700;    0,000
1039,694;  677,396;  199,443;    0,000
1040,238;  670,039;  197,314;    0,000
1040,782;  669,267;  193,514;    0,000
1041,326;  668,124;  195,229;    0,000
1041,869;  669,324;  200,443;    0,000
1042,413;  666,481;  202,686;    0,000
1042,957;  665,810;  206,229;    0,000
1043,500;  663,967;  205,186;    0,000
1044,044;  665,339;  206,314;    0,000
1044,587;  656,696;  205,671;    0,000
1045,130;  658,381;  207,600;    0,000
1045,674;  652,139;  203,986;    0,000
1046,217;  652,739;  207,171;    0,000
1046,760;  647,310;  205,400;    0,000
1047,304;  639,710;  203,957;    0,000
1047,847;  637,781;  206,157;    0,000
1048,390;  639,224;  208,329;    0,000
1048,933;  632,910;  205,200;    0,000
1049,476;  626,710;  208,371;    0,000
1050,019;  617,467;  206,486;    0,000
1050,562;  611,881;  206,114;    0,000
1051,104;  605,696;  209,886;    0,000
1051,647;  600,210;  213,986;    0,000
1052,190;  595,510;  215,529;    0,000
1052,732;  586,524;  214,014;    0,000
1053,275;  581,739;  208,643;    0,000
1053,818;  580,553;  204,271;    0,000
1054,360;  578,681;  205,571;    0,000
1054,902;  579,239;  205,771;    0,000
1055,445;  570,453;  198,400;    0,000
1055,987;  568,353;  200,657;    0,000
1056,530;  569,239;  203,357;    0,000
1057,072;  567,510;  206,900;    0,000
1057,614;  559,381;  204,957;    0,000
1058,156;  559,767;  207,871;    0,000
1058,698;  554,567;  205,343;    0,000
1059,240;  559,924;  209,257;    0,000
1059,782;  554,367;  204,786;    0,000
1060,324;  549,553;  202,243;    0,000
1060,866;  549,267;  204,014;    0,000
1061,408;  547,853;  209,786;    0,000
1061,949;  543,396;  208,729;    0,000
1062,491;  540,210;  209,857;    0,000
1063,033;  534,196;  209,486;    0,000
1063,574;  526,381;  209,071;    0,000
1064,116;  521,924;  208,843;    0,000
1064,657;  517,410;  207,271;    0,000
1065,199;  518,710;  207,314;    0,000
1065,740;  514,481;  206,343;    0,000
1066,281;  510,453;  208,214;    0,000
1066,823;  503,739;  203,557;    0,000
1067,364;  504,624;  209,071;    0,000
1067,905;  503,453;  212,771;    0,000
1068,446;  498,610;  211,871;    0,000
1068,987;  496,781;  209,557;    0,000
1069,528;  491,753;  210,071;    0,000
1070,069;  498,453;  213,629;    0,000
1070,610;  495,353;  215,843;    0,000
1071,151;  489,324;  210,871;    0,000
1071,692;  485,439;  209,571;    0,000
1072,232;  482,110;  208,329;    0,000
1072,773;  474,610;  209,271;    0,000
1073,314;  475,924;  207,229;    0,000
1073,854;  466,910;  203,714;    0,000
1074,395;  465,724;  204,443;    0,000
1074,935;  462,639;  205,757;    0,000
1075,476;  457,567;  204,171;    0,000
1076,016;  458,810;  205,471;    0,000
1076,556;  460,196;  205,529;    0,000
1077,097;  458,653;  207,929;    0,000
1077,637;  454,824;  207,157;    0,000
1078,177;  454,196;  205,457;    0,000
1078,717;  462,667;  206,157;    0,000
1079,257;  465,496;  208,414;    0,000
1079,797;  469,496;  212,700;    0,000
1080,337;  466,824;  213,114;    0,000
1080,877;  456,967;  210,571;    0,000
1081,417;  456,167;  208,643;    0,000
1081,956;  448,796;  208,014;    0,000
1082,496;  435,867;  204,657;    0,000
1083,036;  433,924;  204,514;    0,000
1083,575;  427,053;  199,457;    0,000
1084,115;  421,024;  196,371;    0,000
1084,655;  426,324;  197,114;    0,000
1085,194;  434,753;  200,114;    0,000
1085,733;  437,953;  201,643;    0,000
1086,273;  442,296;  204,229;    0,000
1086,812;  444,867;  206,129;    0,000
1087,351;  443,810;  209,457;    0,000
1087,890;  442,153;  209,457;    0,000
1088,429;  436,767;  210,943;    0,000
1088,969;  425,953;  207,414;    0,000
1089,507;  423,310;  208,514;    0,000
1090,047;  415,924;  208,529;    0,000
1090,585;  407,967;  203,600;    0,000
1091,124;  404,367;  201,400;    0,000
1091,663;  401,310;  203,414;    0,000
1092,202;  407,739;  204,186;    0,000
1092,740;  404,024;  207,100;    0,000
1093,279;  399,624;  204,657;    0,000
1093,818;  400,724;  203,186;    0,000
1094,356;  398,967;  204,686;    0,000
1094,895;  400,339;  205,186;    0,000
1095,433;  399,496;  203,586;    0,000
1095,971;  392,139;  203,143;    0,000
1096,510;  390,124;  201,000;    0,000
1097,048;  392,110;  201,457;    0,000
1097,586;  392,053;  202,757;    0,000
1098,124;  391,067;  205,171;    0,000
1098,662;  388,581;  206,129;    0,000
1099,200;  387,896;  206,814;    0,000
1099,738;  382,696;  206,286;    0,000
1100,276;  385,481;  210,357;    0,000

