BB_148A
Integration time [ms]:  20,000
Averaging Nr. [scans]: 10
Smoothing Nr. [pixels]: 3
Data measured with spectrometer [name]: 7516255SP
Wave   ;Sample   ;Dark     ;Reference
[nm]   ;[counts] ;[counts] ;[counts] 

177,229;  262,218;  246,500;    0,000
177,829;  260,039;  244,100;    0,000
178,430;  263,723;  247,950;    0,000
179,030;  264,280;  248,171;    0,000
179,630;  266,626;  250,214;    0,000
180,230;  264,020;  247,000;    0,000
180,830;  267,515;  250,743;    0,000
181,430;  263,040;  247,329;    0,000
182,030;  266,301;  252,600;    0,000
182,630;  261,595;  250,629;    0,000
183,230;  265,675;  255,686;    0,000
183,830;  263,520;  255,229;    0,000
184,430;  266,684;  260,300;    0,000
185,030;  267,632;  261,701;    0,000
185,630;  272,065;  264,017;    0,000
186,229;  271,025;  262,761;    0,000
186,829;  275,103;  264,219;    0,000
187,429;  268,723;  258,963;    0,000
188,029;  269,894;  261,151;    0,000
188,628;  269,437;  259,952;    0,000
189,228;  268,656;  260,352;    0,000
189,828;  266,256;  260,896;    0,000
190,428;  265,628;  262,440;    0,000
191,027;  263,668;  262,598;    0,000
191,627;  266,019;  263,755;    0,000
192,227;  263,621;  260,655;    0,000
192,826;  264,824;  259,584;    0,000
193,426;  262,454;  256,684;    0,000
194,025;  264,672;  258,468;    0,000
194,625;  263,190;  255,010;    0,000
195,224;  261,915;  251,038;    0,000
195,824;  257,716;  247,551;    0,000
196,423;  259,617;  249,451;    0,000
197,023;  249,341;  241,551;    0,000
197,622;  253,634;  246,593;    0,000
198,221;  247,513;  241,736;    0,000
198,821;  246,072;  240,136;    0,000
199,420;  244,945;  238,835;    0,000
200,019;  242,556;  236,607;    0,000
200,619;  243,435;  236,978;    0,000
201,218;  247,019;  240,392;    0,000
201,817;  242,044;  233,250;    0,000
202,416;  250,863;  238,907;    0,000
203,016;  252,231;  238,549;    0,000
203,615;  250,288;  241,292;    0,000
204,214;  250,490;  242,307;    0,000
204,813;  250,110;  244,378;    0,000
205,412;  252,157;  244,535;    0,000
206,011;  250,032;  246,164;    0,000
206,610;  241,471;  237,335;    0,000
207,209;  238,746;  234,564;    0,000
207,808;  243,502;  235,521;    0,000
208,407;  244,942;  237,135;    0,000
209,006;  241,718;  231,149;    0,000
209,605;  245,709;  235,249;    0,000
210,204;  246,153;  232,521;    0,000
210,803;  246,701;  234,649;    0,000
211,402;  247,928;  237,549;    0,000
212,001;  246,231;  237,221;    0,000
212,599;  248,840;  236,506;    0,000
213,198;  246,049;  238,564;    0,000
213,797;  240,783;  233,906;    0,000
214,396;  244,520;  238,278;    0,000
214,994;  241,643;  237,249;    0,000
215,593;  240,043;  237,392;    0,000
216,192;  238,288;  235,535;    0,000
216,790;  239,423;  237,421;    0,000
217,389;  244,877;  238,892;    0,000
217,988;  246,360;  240,978;    0,000
218,586;  240,477;  236,707;    0,000
219,185;  239,650;  234,435;    0,000
219,783;  237,316;  232,592;    0,000
220,382;  239,647;  235,121;    0,000
220,980;  240,484;  235,021;    0,000
221,579;  240,852;  235,835;    0,000
222,177;  242,435;  235,278;    0,000
222,776;  243,147;  235,449;    0,000
223,374;  247,215;  239,135;    0,000
223,972;  249,439;  240,049;    0,000
224,571;  247,547;  237,164;    0,000
225,169;  243,968;  238,135;    0,000
225,767;  240,485;  235,292;    0,000
226,366;  240,722;  237,906;    0,000
226,964;  240,911;  238,321;    0,000
227,562;  240,476;  237,835;    0,000
228,160;  243,183;  238,092;    0,000
228,758;  239,238;  235,635;    0,000
229,356;  241,413;  235,492;    0,000
229,955;  241,003;  235,949;    0,000
230,553;  238,827;  235,792;    0,000
231,151;  236,255;  233,421;    0,000
231,749;  237,793;  234,721;    0,000
232,347;  240,193;  236,378;    0,000
232,945;  240,891;  237,907;    0,000
233,543;  241,892;  238,421;    0,000
234,141;  238,621;  233,707;    0,000
234,739;  241,670;  234,049;    0,000
235,337;  246,848;  239,164;    0,000
235,934;  247,383;  240,092;    0,000
236,532;  245,704;  241,850;    0,000
237,130;  246,810;  243,264;    0,000
237,728;  247,045;  244,092;    0,000
238,326;  250,925;  249,950;    0,000
238,923;  245,791;  245,193;    0,000
239,521;  242,281;  241,321;    0,000
240,119;  237,873;  235,707;    0,000
240,716;  239,462;  234,492;    0,000
241,314;  238,374;  231,364;    0,000
241,912;  232,740;  225,549;    0,000
242,509;  238,514;  230,807;    0,000
243,107;  241,368;  235,635;    0,000
243,704;  241,919;  236,392;    0,000
244,302;  247,520;  244,049;    0,000
244,899;  244,858;  243,121;    0,000
245,497;  249,101;  246,821;    0,000
246,094;  248,613;  245,292;    0,000
246,692;  244,574;  239,021;    0,000
247,289;  238,278;  234,021;    0,000
247,887;  239,852;  236,549;    0,000
248,484;  238,056;  234,692;    0,000
249,081;  233,833;  230,249;    0,000
249,679;  230,055;  228,406;    0,000
250,276;  231,556;  232,249;    0,000
250,873;  231,238;  233,121;    0,000
251,470;  241,624;  240,392;    0,000
252,067;  236,120;  233,878;    0,000
252,665;  234,999;  233,292;    0,000
253,262;  238,884;  236,963;    0,000
253,859;  242,160;  240,335;    0,000
254,456;  242,571;  242,163;    0,000
255,053;  239,450;  240,306;    0,000
255,650;  237,963;  239,549;    0,000
256,247;  241,780;  241,278;    0,000
256,844;  238,060;  237,535;    0,000
257,441;  238,313;  242,049;    0,000
258,038;  232,046;  233,377;    0,000
258,635;  237,298;  236,663;    0,000
259,232;  234,758;  235,135;    0,000
259,829;  234,312;  234,249;    0,000
260,426;  232,717;  235,006;    0,000
261,022;  238,775;  238,578;    0,000
261,619;  240,335;  235,764;    0,000
262,216;  243,383;  240,035;    0,000
262,813;  239,258;  233,921;    0,000
263,409;  244,174;  236,878;    0,000
264,006;  242,997;  235,878;    0,000
264,603;  245,637;  238,220;    0,000
265,199;  245,860;  238,863;    0,000
265,796;  240,051;  233,806;    0,000
266,393;  250,206;  241,092;    0,000
266,989;  250,633;  241,006;    0,000
267,586;  252,216;  240,849;    0,000
268,182;  254,637;  243,492;    0,000
268,779;  258,413;  243,992;    0,000
269,375;  259,308;  245,206;    0,000
269,971;  256,018;  243,035;    0,000
270,568;  249,704;  239,363;    0,000
271,164;  242,497;  238,049;    0,000
271,761;  241,727;  239,421;    0,000
272,357;  237,711;  234,863;    0,000
272,953;  233,196;  234,935;    0,000
273,550;  234,453;  235,378;    0,000
274,146;  240,466;  240,049;    0,000
274,742;  239,401;  240,178;    0,000
275,338;  244,349;  240,521;    0,000
275,934;  245,629;  243,349;    0,000
276,531;  244,166;  241,978;    0,000
277,127;  243,407;  240,135;    0,000
277,723;  237,588;  237,049;    0,000
278,319;  233,452;  234,764;    0,000
278,915;  238,055;  239,078;    0,000
279,511;  231,216;  232,907;    0,000
280,107;  231,517;  232,264;    0,000
280,703;  231,539;  234,135;    0,000
281,299;  229,116;  234,892;    0,000
281,895;  230,105;  235,021;    0,000
282,491;  231,961;  234,878;    0,000
283,086;  230,525;  235,178;    0,000
283,682;  234,502;  240,407;    0,000
284,278;  234,306;  237,535;    0,000
284,874;  234,256;  235,107;    0,000
285,470;  241,088;  238,621;    0,000
286,065;  241,364;  238,550;    0,000
286,661;  243,872;  242,621;    0,000
287,257;  238,607;  235,707;    0,000
287,852;  240,781;  237,850;    0,000
288,448;  237,971;  236,607;    0,000
289,044;  235,312;  236,907;    0,000
289,639;  230,899;  233,950;    0,000
290,235;  226,736;  231,050;    0,000
290,830;  224,282;  228,907;    0,000
291,426;  222,665;  226,707;    0,000
292,021;  224,466;  227,721;    0,000
292,617;  220,373;  224,664;    0,000
293,212;  220,285;  225,221;    0,000
293,807;  216,763;  222,750;    0,000
294,403;  222,696;  229,278;    0,000
294,998;  224,550;  230,678;    0,000
295,593;  224,119;  231,064;    0,000
296,189;  224,177;  229,864;    0,000
296,784;  224,828;  229,049;    0,000
297,379;  229,741;  231,092;    0,000
297,974;  233,149;  235,106;    0,000
298,570;  224,004;  227,849;    0,000
299,165;  222,980;  224,992;    0,000
299,760;  223,313;  225,321;    0,000
300,355;  222,106;  228,921;    0,000
300,950;  224,024;  231,735;    0,000
301,545;  222,436;  232,621;    0,000
302,140;  222,390;  231,064;    0,000
302,735;  227,002;  232,049;    0,000
303,330;  228,964;  236,049;    0,000
303,925;  229,424;  235,949;    0,000
304,520;  229,851;  234,449;    0,000
305,115;  229,151;  236,307;    0,000
305,709;  226,778;  232,021;    0,000
306,304;  226,254;  229,064;    0,000
306,899;  223,353;  226,607;    0,000
307,494;  223,392;  225,964;    0,000
308,089;  220,304;  222,292;    0,000
308,683;  221,792;  222,035;    0,000
309,278;  220,636;  217,821;    0,000
309,873;  222,919;  221,635;    0,000
310,467;  225,147;  225,692;    0,000
311,062;  229,248;  229,878;    0,000
311,656;  227,840;  228,035;    0,000
312,251;  232,165;  233,449;    0,000
312,846;  230,129;  233,563;    0,000
313,440;  234,780;  238,392;    0,000
314,035;  235,226;  235,235;    0,000
314,629;  237,463;  236,820;    0,000
315,223;  237,971;  239,920;    0,000
315,818;  238,787;  242,178;    0,000
316,412;  237,331;  239,749;    0,000
317,006;  237,023;  239,292;    0,000
317,601;  232,381;  235,978;    0,000
318,195;  234,388;  241,921;    0,000
318,789;  232,835;  240,078;    0,000
319,384;  234,653;  239,507;    0,000
319,978;  232,124;  234,821;    0,000
320,572;  234,190;  237,950;    0,000
321,166;  237,960;  240,607;    0,000
321,760;  240,492;  242,092;    0,000
322,354;  240,092;  238,864;    0,000
322,948;  237,799;  237,778;    0,000
323,542;  233,816;  235,578;    0,000
324,136;  234,093;  237,978;    0,000
324,730;  235,050;  237,349;    0,000
325,324;  231,816;  233,963;    0,000
325,918;  230,192;  233,006;    0,000
326,512;  229,053;  233,192;    0,000
327,106;  230,401;  236,363;    0,000
327,700;  229,417;  233,149;    0,000
328,294;  233,670;  235,877;    0,000
328,887;  228,797;  234,720;    0,000
329,481;  229,512;  236,106;    0,000
330,075;  230,578;  234,634;    0,000
330,669;  227,222;  232,520;    0,000
331,262;  224,559;  226,577;    0,000
331,856;  223,984;  226,992;    0,000
332,449;  221,449;  225,963;    0,000
333,043;  226,673;  228,077;    0,000
333,637;  224,839;  224,620;    0,000
334,230;  224,306;  224,334;    0,000
334,824;  225,708;  224,734;    0,000
335,417;  225,550;  225,320;    0,000
336,011;  225,784;  224,977;    0,000
336,604;  219,031;  218,520;    0,000
337,197;  213,641;  213,805;    0,000
337,791;  215,658;  214,663;    0,000
338,384;  212,102;  213,991;    0,000
338,977;  212,732;  212,834;    0,000
339,571;  211,157;  211,249;    0,000
340,164;  210,773;  210,091;    0,000
340,757;  219,206;  217,863;    0,000
341,350;  220,965;  217,548;    0,000
341,943;  215,421;  214,991;    0,000
342,537;  213,723;  211,906;    0,000
343,130;  208,648;  210,448;    0,000
343,723;  209,703;  213,891;    0,000
344,316;  205,996;  212,191;    0,000
344,909;  205,569;  209,620;    0,000
345,502;  208,338;  214,991;    0,000
346,095;  210,374;  217,477;    0,000
346,688;  215,275;  223,720;    0,000
347,281;  217,647;  223,891;    0,000
347,874;  218,752;  223,234;    0,000
348,466;  228,442;  232,305;    0,000
349,059;  227,052;  232,305;    0,000
349,652;  221,150;  227,905;    0,000
350,245;  221,176;  227,862;    0,000
350,838;  217,658;  224,748;    0,000
351,430;  219,231;  226,791;    0,000
352,023;  215,140;  222,262;    0,000
352,616;  207,131;  214,477;    0,000
353,208;  207,877;  215,991;    0,000
353,801;  212,586;  220,548;    0,000
354,393;  212,346;  221,248;    0,000
354,986;  214,474;  222,963;    0,000
355,578;  215,335;  222,991;    0,000
356,171;  220,262;  227,734;    0,000
356,763;  224,482;  231,677;    0,000
357,356;  223,071;  228,805;    0,000
357,948;  220,095;  225,205;    0,000
358,541;  222,522;  225,734;    0,000
359,133;  223,889;  227,063;    0,000
359,725;  223,065;  225,562;    0,000
360,318;  219,490;  222,305;    0,000
360,910;  217,958;  223,048;    0,000
361,502;  217,799;  223,791;    0,000
362,094;  219,871;  224,248;    0,000
362,686;  215,287;  218,677;    0,000
363,279;  213,434;  215,248;    0,000
363,871;  216,231;  219,305;    0,000
364,463;  217,112;  221,777;    0,000
365,055;  217,535;  218,034;    0,000
365,647;  217,979;  218,791;    0,000
366,239;  214,319;  216,263;    0,000
366,831;  218,634;  221,691;    0,000
367,423;  220,052;  224,605;    0,000
368,015;  217,192;  221,120;    0,000
368,607;  219,246;  221,420;    0,000
369,198;  220,540;  224,748;    0,000
369,790;  219,253;  222,805;    0,000
370,382;  220,778;  222,448;    0,000
370,974;  217,254;  219,391;    0,000
371,565;  215,468;  217,891;    0,000
372,157;  211,714;  216,862;    0,000
372,749;  211,964;  216,705;    0,000
373,341;  206,480;  210,891;    0,000
373,932;  211,307;  217,363;    0,000
374,524;  212,815;  220,948;    0,000
375,115;  214,108;  222,748;    0,000
375,707;  218,398;  225,720;    0,000
376,298;  223,256;  228,977;    0,000
376,890;  224,708;  228,691;    0,000
377,481;  227,793;  233,534;    0,000
378,073;  222,500;  226,877;    0,000
378,664;  222,687;  228,148;    0,000
379,255;  223,361;  226,948;    0,000
379,847;  221,333;  226,062;    0,000
380,438;  218,038;  223,162;    0,000
381,029;  214,897;  223,205;    0,000
381,620;  212,957;  220,105;    0,000
382,212;  213,082;  221,491;    0,000
382,803;  211,755;  219,491;    0,000
383,394;  209,132;  218,234;    0,000
383,985;  206,523;  215,306;    0,000
384,576;  209,156;  219,520;    0,000
385,167;  205,520;  216,706;    0,000
385,758;  206,237;  218,521;    0,000
386,349;  203,965;  214,407;    0,000
386,940;  205,265;  215,479;    0,000
387,531;  209,160;  220,393;    0,000
388,122;  211,379;  221,951;    0,000
388,713;  208,115;  214,109;    0,000
389,304;  209,770;  216,380;    0,000
389,895;  209,605;  215,895;    0,000
390,485;  217,295;  225,453;    0,000
391,076;  214,969;  220,339;    0,000
391,667;  216,824;  219,296;    0,000
392,258;  213,358;  217,654;    0,000
392,848;  213,594;  221,997;    0,000
393,439;  212,084;  216,911;    0,000
394,030;  209,957;  213,611;    0,000
394,620;  206,695;  210,539;    0,000
395,211;  206,948;  213,968;    0,000
395,801;  203,404;  212,382;    0,000
396,392;  203,608;  212,710;    0,000
396,982;  204,637;  212,795;    0,000
397,573;  209,839;  219,895;    0,000
398,163;  212,937;  223,795;    0,000
398,753;  209,618;  219,880;    0,000
399,344;  207,805;  216,523;    0,000
399,934;  205,478;  212,895;    0,000
400,524;  210,423;  213,852;    0,000
401,115;  210,875;  214,410;    0,000
401,705;  206,363;  207,352;    0,000
402,295;  208,138;  207,567;    0,000
402,885;  208,328;  205,610;    0,000
403,475;  209,701;  206,610;    0,000
404,065;  209,892;  207,595;    0,000
404,655;  206,769;  206,095;    0,000
405,245;  205,254;  203,409;    0,000
405,835;  210,032;  211,124;    0,000
406,425;  208,413;  211,652;    0,000
407,015;  209,543;  213,681;    0,000
407,605;  210,690;  216,495;    0,000
408,195;  214,392;  221,523;    0,000
408,785;  212,939;  221,809;    0,000
409,375;  215,019;  224,638;    0,000
409,965;  217,377;  223,695;    0,000
410,554;  220,116;  226,838;    0,000
411,144;  220,767;  229,466;    0,000
411,734;  221,693;  229,352;    0,000
412,324;  219,693;  226,666;    0,000
412,913;  220,403;  227,938;    0,000
413,503;  222,820;  232,009;    0,000
414,092;  221,923;  233,809;    0,000
414,682;  221,453;  230,552;    0,000
415,271;  217,409;  227,466;    0,000
415,861;  215,698;  224,352;    0,000
416,450;  219,045;  226,323;    0,000
417,040;  220,043;  225,923;    0,000
417,629;  219,491;  221,352;    0,000
418,219;  216,281;  218,009;    0,000
418,808;  214,757;  218,137;    0,000
419,397;  214,824;  218,195;    0,000
419,986;  219,177;  224,880;    0,000
420,576;  221,891;  226,266;    0,000
421,165;  224,338;  227,480;    0,000
421,754;  218,354;  223,623;    0,000
422,343;  221,060;  227,609;    0,000
422,932;  216,956;  224,694;    0,000
423,521;  219,173;  226,809;    0,000
424,111;  211,693;  220,352;    0,000
424,700;  210,173;  220,494;    0,000
425,289;  205,028;  218,980;    0,000
425,878;  207,102;  221,823;    0,000
426,466;  202,347;  217,809;    0,000
427,055;  204,112;  219,380;    0,000
427,644;  207,267;  219,766;    0,000
428,233;  212,751;  224,694;    0,000
428,822;  210,542;  222,209;    0,000
429,411;  211,892;  221,980;    0,000
429,999;  215,203;  225,352;    0,000
430,588;  215,697;  222,009;    0,000
431,177;  215,117;  222,495;    0,000
431,766;  214,413;  223,252;    0,000
432,354;  216,207;  223,766;    0,000
432,943;  213,654;  220,652;    0,000
433,531;  215,791;  222,280;    0,000
434,120;  216,661;  220,723;    0,000
434,708;  220,603;  224,952;    0,000
435,297;  226,777;  226,752;    0,000
435,885;  223,543;  223,309;    0,000
436,474;  218,527;  218,280;    0,000
437,062;  215,461;  218,380;    0,000
437,650;  213,862;  215,237;    0,000
438,239;  207,590;  210,866;    0,000
438,827;  203,116;  206,880;    0,000
439,415;  196,303;  202,723;    0,000
440,003;  196,708;  204,665;    0,000
440,592;  198,862;  205,523;    0,000
441,180;  201,662;  207,437;    0,000
441,768;  199,520;  206,123;    0,000
442,356;  203,980;  210,251;    0,000
442,944;  206,134;  214,151;    0,000
443,532;  210,044;  217,522;    0,000
444,120;  205,503;  211,722;    0,000
444,708;  203,634;  213,079;    0,000
445,296;  199,968;  211,108;    0,000
445,884;  202,259;  214,308;    0,000
446,472;  199,730;  213,351;    0,000
447,060;  196,963;  211,565;    0,000
447,647;  194,262;  210,394;    0,000
448,235;  199,985;  217,108;    0,000
448,823;  200,283;  215,479;    0,000
449,411;  204,892;  217,622;    0,000
449,998;  201,977;  214,865;    0,000
450,586;  203,539;  215,108;    0,000
451,173;  208,489;  219,051;    0,000
451,761;  210,088;  218,708;    0,000
452,349;  210,452;  219,294;    0,000
452,936;  213,690;  223,751;    0,000
453,524;  211,560;  222,765;    0,000
454,111;  212,909;  224,151;    0,000
454,698;  214,209;  224,951;    0,000
455,286;  216,241;  227,565;    0,000
455,873;  216,496;  229,751;    0,000
456,461;  218,026;  230,350;    0,000
457,048;  214,463;  227,193;    0,000
457,635;  216,530;  229,765;    0,000
458,222;  219,273;  232,650;    0,000
458,810;  221,581;  236,022;    0,000
459,397;  212,731;  227,307;    0,000
459,984;  214,388;  229,179;    0,000
460,571;  208,896;  223,807;    0,000
461,158;  207,025;  221,050;    0,000
461,745;  207,297;  219,465;    0,000
462,332;  206,258;  219,150;    0,000
462,919;  205,204;  216,507;    0,000
463,506;  214,569;  224,379;    0,000
464,093;  213,582;  221,208;    0,000
464,680;  217,615;  223,650;    0,000
465,267;  220,917;  227,936;    0,000
465,853;  217,359;  226,450;    0,000
466,440;  220,170;  228,150;    0,000
467,027;  219,214;  228,893;    0,000
467,614;  215,709;  224,979;    0,000
468,200;  219,280;  229,750;    0,000
468,787;  215,312;  227,607;    0,000
469,374;  216,319;  227,636;    0,000
469,960;  219,384;  230,007;    0,000
470,547;  216,926;  226,878;    0,000
471,133;  214,422;  223,678;    0,000
471,720;  212,093;  224,207;    0,000
472,306;  212,260;  224,064;    0,000
472,893;  212,656;  224,193;    0,000
473,479;  216,611;  228,793;    0,000
474,065;  216,219;  227,350;    0,000
474,652;  218,798;  229,721;    0,000
475,238;  219,556;  232,321;    0,000
475,824;  218,147;  227,664;    0,000
476,410;  223,165;  230,321;    0,000
476,997;  229,394;  234,007;    0,000
477,583;  226,359;  230,035;    0,000
478,169;  228,486;  231,707;    0,000
478,755;  228,951;  231,592;    0,000
479,341;  227,287;  226,593;    0,000
479,927;  227,321;  227,650;    0,000
480,513;  221,566;  225,593;    0,000
481,099;  217,976;  222,950;    0,000
481,685;  218,145;  223,607;    0,000
482,271;  217,509;  223,636;    0,000
482,857;  209,723;  218,550;    0,000
483,443;  216,025;  226,707;    0,000
484,028;  211,163;  224,193;    0,000
484,614;  211,350;  222,750;    0,000
485,200;  206,102;  217,993;    0,000
485,786;  204,351;  215,093;    0,000
486,371;  208,931;  218,564;    0,000
486,957;  213,440;  223,064;    0,000
487,543;  212,159;  220,421;    0,000
488,128;  218,342;  222,050;    0,000
488,714;  218,630;  222,778;    0,000
489,299;  225,367;  231,150;    0,000
489,885;  223,093;  229,264;    0,000
490,470;  220,724;  225,435;    0,000
491,055;  218,506;  222,307;    0,000
491,641;  218,634;  223,335;    0,000
492,226;  223,536;  230,850;    0,000
492,811;  219,132;  226,235;    0,000
493,397;  220,144;  227,092;    0,000
493,982;  222,562;  228,107;    0,000
494,567;  221,248;  229,449;    0,000
495,152;  222,126;  230,678;    0,000
495,738;  216,518;  227,464;    0,000
496,323;  212,519;  223,707;    0,000
496,908;  212,869;  226,849;    0,000
497,493;  209,769;  224,092;    0,000
498,078;  209,593;  225,635;    0,000
498,663;  206,523;  223,507;    0,000
499,248;  206,679;  221,935;    0,000
499,833;  207,418;  219,906;    0,000
500,417;  201,032;  216,335;    0,000
501,002;  202,235;  214,064;    0,000
501,587;  198,843;  209,635;    0,000
502,172;  199,803;  210,249;    0,000
502,757;  200,096;  208,278;    0,000
503,341;  201,373;  210,749;    0,000
503,926;  200,735;  209,249;    0,000
504,511;  203,317;  208,564;    0,000
505,095;  208,160;  217,449;    0,000
505,680;  209,186;  218,707;    0,000
506,264;  216,230;  227,364;    0,000
506,849;  207,615;  221,006;    0,000
507,433;  210,983;  225,364;    0,000
508,018;  213,823;  229,992;    0,000
508,602;  216,835;  232,764;    0,000
509,186;  215,927;  229,463;    0,000
509,771;  214,344;  228,206;    0,000
510,355;  209,861;  222,806;    0,000
510,939;  212,320;  225,792;    0,000
511,524;  209,989;  223,806;    0,000
512,108;  208,614;  222,192;    0,000
512,692;  209,505;  223,792;    0,000
513,276;  202,734;  216,921;    0,000
513,860;  206,797;  220,621;    0,000
514,444;  203,841;  217,878;    0,000
515,028;  209,675;  223,378;    0,000
515,612;  206,698;  219,278;    0,000
516,196;  207,713;  220,749;    0,000
516,780;  206,539;  221,721;    0,000
517,364;  209,270;  224,721;    0,000
517,948;  210,838;  227,335;    0,000
518,532;  212,108;  229,006;    0,000
519,115;  210,583;  225,778;    0,000
519,699;  217,703;  233,506;    0,000
520,283;  217,799;  233,835;    0,000
520,867;  218,828;  232,863;    0,000
521,450;  219,265;  233,049;    0,000
522,034;  219,105;  232,449;    0,000
522,617;  218,370;  232,763;    0,000
523,201;  219,634;  234,878;    0,000
523,784;  211,791;  228,478;    0,000
524,368;  211,467;  228,521;    0,000
524,951;  212,946;  229,592;    0,000
525,535;  213,729;  230,492;    0,000
526,118;  214,036;  230,692;    0,000
526,702;  213,459;  228,549;    0,000
527,285;  219,335;  234,235;    0,000
527,868;  222,492;  235,863;    0,000
528,451;  225,031;  235,778;    0,000
529,035;  224,286;  235,535;    0,000
529,618;  224,042;  235,349;    0,000
530,201;  225,611;  235,935;    0,000
530,784;  224,716;  236,220;    0,000
531,367;  226,433;  237,549;    0,000
531,950;  225,873;  237,292;    0,000
532,533;  228,476;  241,720;    0,000
533,116;  233,401;  246,406;    0,000
533,699;  231,597;  243,663;    0,000
534,282;  228,055;  240,777;    0,000
534,865;  226,965;  240,935;    0,000
535,448;  219,595;  233,877;    0,000
536,030;  220,600;  234,178;    0,000
536,613;  216,691;  232,035;    0,000
537,196;  210,885;  226,078;    0,000
537,778;  214,672;  229,835;    0,000
538,361;  219,417;  232,420;    0,000
538,944;  224,952;  234,006;    0,000
539,526;  235,947;  241,906;    0,000
540,109;  242,401;  245,577;    0,000
540,691;  248,800;  246,777;    0,000
541,274;  258,467;  250,606;    0,000
541,856;  261,455;  251,163;    0,000
542,439;  268,757;  256,892;    0,000
543,021;  270,802;  255,963;    0,000
543,603;  271,037;  255,406;    0,000
544,186;  270,620;  253,463;    0,000
544,768;  273,208;  255,734;    0,000
545,350;  271,225;  256,677;    0,000
545,932;  270,591;  254,977;    0,000
546,515;  266,080;  252,463;    0,000
547,097;  264,046;  251,834;    0,000
547,679;  261,760;  251,249;    0,000
548,261;  262,594;  254,135;    0,000
548,843;  256,640;  251,320;    0,000
549,425;  252,146;  247,335;    0,000
550,007;  250,974;  247,949;    0,000
550,589;  248,097;  245,863;    0,000
551,171;  244,313;  245,906;    0,000
551,752;  236,432;  241,363;    0,000
552,334;  229,303;  235,992;    0,000
552,916;  228,705;  236,534;    0,000
553,498;  225,281;  235,834;    0,000
554,079;  219,345;  230,792;    0,000
554,661;  216,278;  229,620;    0,000
555,243;  215,779;  229,777;    0,000
555,824;  216,034;  229,820;    0,000
556,406;  214,626;  228,706;    0,000
556,987;  210,703;  224,263;    0,000
557,569;  211,072;  226,063;    0,000
558,150;  216,877;  232,249;    0,000
558,732;  219,056;  234,977;    0,000
559,313;  218,754;  234,477;    0,000
559,894;  216,861;  232,192;    0,000
560,476;  218,288;  232,906;    0,000
561,057;  219,852;  233,134;    0,000
561,638;  222,702;  233,577;    0,000
562,219;  213,809;  225,320;    0,000
562,801;  211,584;  221,820;    0,000
563,382;  212,802;  222,463;    0,000
563,963;  216,570;  225,749;    0,000
564,544;  213,166;  225,077;    0,000
565,125;  209,737;  221,963;    0,000
565,706;  209,462;  223,892;    0,000
566,287;  211,768;  226,534;    0,000
566,868;  209,491;  225,206;    0,000
567,449;  209,984;  226,092;    0,000
568,030;  207,719;  223,720;    0,000
568,610;  210,052;  224,892;    0,000
569,191;  212,760;  228,234;    0,000
569,772;  210,967;  225,320;    0,000
570,353;  209,205;  222,906;    0,000
570,933;  212,748;  224,720;    0,000
571,514;  207,437;  220,634;    0,000
572,094;  206,303;  219,763;    0,000
572,675;  203,469;  216,063;    0,000
573,256;  203,833;  217,249;    0,000
573,836;  201,418;  214,777;    0,000
574,417;  204,710;  216,820;    0,000
574,997;  210,618;  220,763;    0,000
575,577;  215,121;  223,035;    0,000
576,158;  219,816;  227,606;    0,000
576,738;  226,282;  232,863;    0,000
577,318;  229,676;  233,806;    0,000
577,898;  235,587;  237,677;    0,000
578,479;  235,012;  239,520;    0,000
579,059;  227,904;  233,292;    0,000
579,639;  228,782;  234,849;    0,000
580,219;  226,852;  232,549;    0,000
580,799;  222,699;  227,677;    0,000
581,379;  216,833;  224,149;    0,000
581,959;  212,831;  222,834;    0,000
582,539;  216,213;  225,663;    0,000
583,119;  217,268;  227,049;    0,000
583,699;  218,203;  225,777;    0,000
584,279;  218,834;  224,291;    0,000
584,859;  225,208;  229,434;    0,000
585,438;  226,644;  229,092;    0,000
586,018;  228,924;  228,649;    0,000
586,598;  228,002;  225,220;    0,000
587,177;  226,399;  224,249;    0,000
587,757;  225,924;  225,434;    0,000
588,337;  225,047;  226,892;    0,000
588,916;  222,345;  225,335;    0,000
589,496;  219,967;  224,563;    0,000
590,075;  220,772;  227,549;    0,000
590,654;  219,239;  227,477;    0,000
591,234;  220,087;  227,492;    0,000
591,813;  219,707;  224,549;    0,000
592,393;  219,468;  222,263;    0,000
592,972;  217,583;  220,320;    0,000
593,551;  223,026;  224,592;    0,000
594,130;  222,376;  223,392;    0,000
594,710;  225,585;  225,863;    0,000
595,289;  225,210;  226,021;    0,000
595,868;  223,401;  226,106;    0,000
596,447;  224,924;  229,377;    0,000
597,026;  227,255;  233,377;    0,000
597,605;  225,627;  233,077;    0,000
598,184;  220,438;  226,720;    0,000
598,763;  220,247;  226,363;    0,000
599,342;  221,960;  228,020;    0,000
599,920;  222,344;  227,935;    0,000
600,499;  225,524;  229,935;    0,000
601,078;  222,185;  226,963;    0,000
601,657;  221,443;  225,892;    0,000
602,236;  226,238;  231,506;    0,000
602,814;  221,935;  228,034;    0,000
603,393;  219,919;  227,320;    0,000
603,971;  225,417;  230,706;    0,000
604,550;  224,300;  228,949;    0,000
605,128;  224,028;  227,678;    0,000
605,707;  227,959;  232,063;    0,000
606,285;  227,794;  229,363;    0,000
606,864;  234,895;  235,678;    0,000
607,442;  244,983;  238,178;    0,000
608,020;  252,613;  243,206;    0,000
608,599;  262,549;  247,206;    0,000
609,177;  279,190;  259,549;    0,000
609,755;  287,660;  259,506;    0,000
610,333;  296,831;  263,435;    0,000
610,912;  306,700;  267,721;    0,000
611,490;  310,695;  268,678;    0,000
612,068;  303,221;  265,064;    0,000
612,646;  298,577;  264,907;    0,000
613,224;  291,110;  258,864;    0,000
613,802;  283,514;  254,378;    0,000
614,380;  276,027;  252,764;    0,000
614,958;  263,687;  246,435;    0,000
615,535;  250,650;  242,107;    0,000
616,113;  248,301;  239,492;    0,000
616,691;  239,494;  234,492;    0,000
617,269;  232,397;  229,807;    0,000
617,846;  230,504;  231,592;    0,000
618,424;  228,189;  228,307;    0,000
619,002;  228,418;  227,735;    0,000
619,579;  228,234;  228,635;    0,000
620,157;  231,160;  230,607;    0,000
620,734;  234,473;  233,793;    0,000
621,312;  235,193;  235,050;    0,000
621,889;  234,970;  233,207;    0,000
622,467;  234,107;  235,935;    0,000
623,044;  233,920;  237,493;    0,000
623,621;  235,357;  238,264;    0,000
624,198;  229,872;  236,035;    0,000
624,776;  225,067;  232,492;    0,000
625,353;  224,644;  231,193;    0,000
625,930;  223,806;  232,050;    0,000
626,507;  227,676;  232,178;    0,000
627,084;  227,272;  229,836;    0,000
627,661;  225,621;  226,978;    0,000
628,238;  227,671;  227,193;    0,000
628,815;  228,828;  227,364;    0,000
629,392;  227,266;  226,864;    0,000
629,969;  229,258;  229,936;    0,000
630,546;  227,725;  230,907;    0,000
631,123;  228,611;  233,536;    0,000
631,700;  228,595;  235,021;    0,000
632,276;  225,930;  233,564;    0,000
632,853;  228,249;  235,536;    0,000
633,430;  229,616;  236,522;    0,000
634,006;  225,519;  233,165;    0,000
634,583;  226,744;  232,979;    0,000
635,160;  224,527;  230,636;    0,000
635,736;  223,896;  230,479;    0,000
636,313;  221,084;  227,636;    0,000
636,889;  216,365;  226,365;    0,000
637,466;  217,489;  230,322;    0,000
638,042;  217,256;  231,679;    0,000
638,618;  213,247;  229,593;    0,000
639,194;  210,749;  226,265;    0,000
639,771;  208,224;  224,193;    0,000
640,347;  213,168;  231,536;    0,000
640,923;  215,486;  229,193;    0,000
641,499;  213,075;  225,650;    0,000
642,075;  213,421;  224,379;    0,000
642,651;  213,082;  224,979;    0,000
643,227;  215,371;  228,321;    0,000
643,803;  220,331;  232,336;    0,000
644,379;  219,392;  229,521;    0,000
644,955;  217,981;  229,036;    0,000
645,531;  219,556;  230,207;    0,000
646,107;  219,688;  231,221;    0,000
646,683;  217,035;  227,407;    0,000
647,259;  215,767;  226,507;    0,000
647,834;  214,856;  224,978;    0,000
648,410;  213,131;  222,407;    0,000
648,986;  213,791;  222,921;    0,000
649,561;  214,923;  224,221;    0,000
650,137;  213,527;  220,850;    0,000
650,712;  213,630;  222,107;    0,000
651,288;  215,020;  222,236;    0,000
651,863;  213,437;  223,893;    0,000
652,439;  212,226;  223,635;    0,000
653,014;  214,544;  225,121;    0,000
653,589;  211,519;  220,478;    0,000
654,165;  212,123;  221,807;    0,000
654,740;  213,169;  222,593;    0,000
655,315;  210,801;  220,650;    0,000
655,890;  215,590;  224,564;    0,000
656,465;  214,808;  222,878;    0,000
657,040;  208,897;  218,607;    0,000
657,616;  203,886;  215,378;    0,000
658,191;  204,247;  216,964;    0,000
658,766;  207,522;  218,935;    0,000
659,340;  205,054;  217,464;    0,000
659,915;  203,814;  214,678;    0,000
660,490;  204,889;  215,907;    0,000
661,065;  206,650;  218,321;    0,000
661,640;  208,125;  217,907;    0,000
662,215;  208,257;  216,335;    0,000
662,789;  208,475;  216,935;    0,000
663,364;  210,264;  218,078;    0,000
663,939;  205,153;  213,135;    0,000
664,513;  207,085;  215,878;    0,000
665,088;  206,803;  213,878;    0,000
665,662;  209,306;  218,521;    0,000
666,237;  211,924;  219,792;    0,000
666,811;  206,799;  215,949;    0,000
667,385;  209,560;  217,964;    0,000
667,960;  209,420;  217,635;    0,000
668,534;  207,495;  214,821;    0,000
669,108;  208,042;  215,835;    0,000
669,683;  206,559;  212,049;    0,000
670,257;  201,334;  208,821;    0,000
670,831;  200,595;  206,606;    0,000
671,405;  200,013;  206,049;    0,000
671,979;  199,445;  204,549;    0,000
672,553;  199,334;  204,863;    0,000
673,127;  202,052;  205,463;    0,000
673,701;  200,141;  203,578;    0,000
674,275;  200,944;  202,778;    0,000
674,849;  204,405;  205,663;    0,000
675,423;  201,523;  202,792;    0,000
675,997;  201,869;  204,120;    0,000
676,570;  203,287;  204,692;    0,000
677,144;  200,947;  203,692;    0,000
677,718;  206,622;  208,406;    0,000
678,292;  208,669;  210,792;    0,000
678,865;  207,272;  210,035;    0,000
679,439;  209,261;  212,649;    0,000
680,012;  209,665;  213,135;    0,000
680,586;  208,625;  212,277;    0,000
681,159;  207,314;  212,077;    0,000
681,733;  206,932;  212,735;    0,000
682,306;  205,107;  211,477;    0,000
682,879;  206,125;  212,549;    0,000
683,453;  207,214;  211,035;    0,000
684,026;  209,089;  212,492;    0,000
684,599;  211,092;  212,163;    0,000
685,172;  216,153;  214,749;    0,000
685,745;  213,828;  214,649;    0,000
686,318;  217,231;  214,606;    0,000
686,891;  217,635;  212,977;    0,000
687,464;  217,553;  215,749;    0,000
688,037;  218,470;  215,877;    0,000
688,610;  216,131;  214,549;    0,000
689,183;  216,120;  213,749;    0,000
689,756;  218,438;  213,049;    0,000
690,329;  214,856;  212,234;    0,000
690,902;  217,516;  214,563;    0,000
691,474;  217,891;  212,749;    0,000
692,047;  216,723;  209,991;    0,000
692,620;  221,827;  215,291;    0,000
693,192;  220,530;  216,191;    0,000
693,765;  220,862;  214,806;    0,000
694,337;  221,423;  213,548;    0,000
694,910;  222,498;  216,891;    0,000
695,482;  225,058;  220,106;    0,000
696,055;  225,591;  221,791;    0,000
696,627;  226,037;  222,677;    0,000
697,199;  221,255;  216,391;    0,000
697,772;  219,230;  216,034;    0,000
698,344;  221,062;  217,105;    0,000
698,916;  216,751;  210,563;    0,000
699,488;  216,297;  209,034;    0,000
700,060;  215,743;  207,105;    0,000
700,633;  215,261;  204,477;    0,000
701,205;  218,293;  207,491;    0,000
701,777;  224,768;  212,491;    0,000
702,349;  224,772;  214,120;    0,000
702,920;  229,018;  216,891;    0,000
703,492;  227,321;  214,562;    0,000
704,064;  227,668;  215,391;    0,000
704,636;  227,000;  214,505;    0,000
705,208;  225,103;  212,420;    0,000
705,779;  221,378;  208,420;    0,000
706,351;  222,825;  206,962;    0,000
706,923;  219,942;  202,348;    0,000
707,494;  222,689;  202,820;    0,000
708,066;  225,492;  202,134;    0,000
708,638;  226,410;  201,048;    0,000
709,209;  232,099;  204,191;    0,000
709,780;  229,931;  202,805;    0,000
710,352;  229,549;  202,248;    0,000
710,923;  233,852;  209,634;    0,000
711,494;  229,784;  208,148;    0,000
712,066;  230,931;  211,062;    0,000
712,637;  227,834;  209,634;    0,000
713,208;  228,980;  210,776;    0,000
713,779;  231,927;  211,776;    0,000
714,350;  231,959;  212,076;    0,000
714,922;  231,534;  208,934;    0,000
715,492;  233,780;  210,976;    0,000
716,064;  231,926;  208,076;    0,000
716,634;  231,387;  206,991;    0,000
717,205;  234,419;  210,791;    0,000
717,776;  234,451;  210,891;    0,000
718,347;  237,326;  214,062;    0,000
718,918;  238,072;  212,462;    0,000
719,489;  239,404;  212,076;    0,000
720,059;  239,822;  212,176;    0,000
720,630;  242,211;  214,291;    0,000
721,201;  239,901;  211,391;    0,000
721,771;  242,875;  213,290;    0,000
722,342;  245,022;  213,276;    0,000
722,912;  243,354;  213,576;    0,000
723,483;  243,400;  213,419;    0,000
724,053;  247,132;  217,576;    0,000
724,623;  246,807;  217,248;    0,000
725,194;  246,296;  217,033;    0,000
725,764;  249,400;  218,348;    0,000
726,334;  248,832;  216,405;    0,000
726,904;  245,907;  215,476;    0,000
727,475;  252,482;  220,133;    0,000
728,045;  250,614;  216,376;    0,000
728,615;  252,989;  215,262;    0,000
729,185;  256,021;  216,119;    0,000
729,755;  251,524;  212,562;    0,000
730,325;  247,556;  211,647;    0,000
730,895;  253,545;  213,076;    0,000
731,465;  249,263;  208,104;    0,000
732,034;  250,767;  209,533;    0,000
732,604;  255,113;  213,033;    0,000
733,174;  253,959;  210,919;    0,000
733,744;  254,434;  210,119;    0,000
734,313;  261,709;  213,833;    0,000
734,883;  258,584;  211,304;    0,000
735,453;  261,373;  214,276;    0,000
736,022;  262,334;  212,647;    0,000
736,592;  262,009;  214,076;    0,000
737,161;  265,812;  217,247;    0,000
737,731;  271,716;  220,419;    0,000
738,300;  269,262;  218,747;    0,000
738,869;  271,451;  221,304;    0,000
739,439;  268,783;  215,819;    0,000
740,008;  272,401;  218,018;    0,000
740,577;  272,704;  215,518;    0,000
741,146;  272,751;  215,904;    0,000
741,715;  270,783;  212,618;    0,000
742,284;  273,615;  212,790;    0,000
742,853;  277,047;  212,933;    0,000
743,422;  280,007;  215,847;    0,000
743,991;  275,825;  212,004;    0,000
744,560;  276,929;  211,747;    0,000
745,129;  276,004;  208,161;    0,000
745,698;  277,650;  210,304;    0,000
746,267;  278,996;  210,475;    0,000
746,836;  277,585;  208,575;    0,000
747,404;  282,818;  213,218;    0,000
747,973;  287,307;  218,418;    0,000
748,542;  289,196;  216,818;    0,000
749,110;  293,714;  219,090;    0,000
749,679;  292,560;  219,547;    0,000
750,247;  289,535;  215,718;    0,000
750,816;  294,181;  218,390;    0,000
751,384;  290,856;  212,518;    0,000
751,952;  291,202;  210,090;    0,000
752,521;  290,677;  210,961;    0,000
753,089;  286,967;  209,218;    0,000
753,657;  289,227;  208,032;    0,000
754,225;  294,445;  210,547;    0,000
754,794;  294,577;  210,218;    0,000
755,362;  298,366;  212,404;    0,000
755,930;  303,470;  216,261;    0,000
756,498;  303,573;  215,618;    0,000
757,066;  307,991;  215,989;    0,000
757,634;  315,137;  219,032;    0,000
758,202;  316,684;  221,104;    0,000
758,769;  321,616;  225,932;    0,000
759,337;  323,162;  228,218;    0,000
759,905;  318,608;  223,632;    0,000
760,473;  322,926;  226,118;    0,000
761,041;  319,315;  223,332;    0,000
761,608;  315,547;  221,304;    0,000
762,176;  318,136;  222,818;    0,000
762,743;  314,397;  217,846;    0,000
763,311;  312,472;  212,075;    0,000
763,878;  315,075;  212,746;    0,000
764,446;  313,107;  210,661;    0,000
765,013;  318,168;  212,918;    0,000
765,581;  320,386;  213,218;    0,000
766,148;  320,132;  209,975;    0,000
766,715;  320,964;  208,361;    0,000
767,282;  325,325;  213,032;    0,000
767,849;  326,314;  212,660;    0,000
768,417;  328,289;  213,232;    0,000
768,984;  326,235;  211,718;    0,000
769,551;  325,753;  210,046;    0,000
770,118;  325,257;  206,889;    0,000
770,685;  323,989;  205,575;    0,000
771,252;  320,392;  200,889;    0,000
771,819;  323,481;  201,703;    0,000
772,385;  322,299;  198,446;    0,000
772,952;  322,431;  197,046;    0,000
773,519;  323,163;  197,117;    0,000
774,086;  323,381;  197,932;    0,000
774,652;  325,284;  196,932;    0,000
775,219;  327,788;  198,746;    0,000
775,786;  329,491;  199,489;    0,000
776,352;  331,738;  201,303;    0,000
776,919;  345,284;  209,332;    0,000
777,485;  350,930;  212,532;    0,000
778,051;  356,319;  216,789;    0,000
778,618;  360,837;  218,746;    0,000
779,184;  360,469;  215,674;    0,000
779,750;  360,616;  215,846;    0,000
780,317;  366,176;  218,517;    0,000
780,883;  363,637;  214,874;    0,000
781,449;  362,283;  214,174;    0,000
782,015;  364,444;  215,617;    0,000
782,581;  367,947;  218,317;    0,000
783,147;  373,879;  221,803;    0,000
783,713;  377,140;  223,646;    0,000
784,279;  381,043;  227,474;    0,000
784,845;  378,447;  226,131;    0,000
785,411;  382,122;  228,474;    0,000
785,977;  378,225;  223,503;    0,000
786,542;  380,543;  224,231;    0,000
787,108;  382,661;  225,088;    0,000
787,674;  384,893;  223,146;    0,000
788,239;  383,953;  221,131;    0,000
788,805;  386,557;  222,660;    0,000
789,371;  387,775;  222,760;    0,000
789,936;  390,950;  221,217;    0,000
790,501;  391,010;  221,631;    0,000
791,067;  393,642;  221,617;    0,000
791,632;  391,403;  218,945;    0,000
792,198;  393,821;  219,488;    0,000
792,763;  391,781;  217,431;    0,000
793,328;  389,785;  214,231;    0,000
793,893;  388,260;  215,360;    0,000
794,458;  387,834;  211,674;    0,000
795,024;  387,052;  211,045;    0,000
795,589;  388,713;  211,545;    0,000
796,154;  385,816;  208,717;    0,000
796,719;  389,991;  208,645;    0,000
797,284;  393,495;  210,217;    0,000
797,848;  397,570;  209,745;    0,000
798,413;  400,745;  214,088;    0,000
798,978;  402,948;  217,388;    0,000
799,543;  403,023;  217,588;    0,000
800,108;  409,612;  219,531;    0,000
800,672;  413,158;  221,131;    0,000
801,237;  414,076;  219,088;    0,000
801,801;  419,094;  224,417;    0,000
802,366;  421,269;  221,888;    0,000
802,930;  420,301;  218,831;    0,000
803,495;  428,919;  224,145;    0,000
804,059;  429,022;  222,874;    0,000
804,624;  429,068;  221,659;    0,000
805,188;  431,201;  223,702;    0,000
805,752;  429,790;  221,974;    0,000
806,317;  429,079;  221,788;    0,000
806,881;  431,525;  223,131;    0,000
807,445;  425,057;  216,816;    0,000
808,009;  428,675;  220,302;    0,000
808,573;  431,064;  221,559;    0,000
809,137;  433,053;  221,402;    0,000
809,701;  435,385;  221,616;    0,000
810,265;  435,675;  220,688;    0,000
810,829;  433,992;  216,388;    0,000
811,393;  438,524;  217,116;    0,000
811,956;  436,671;  213,416;    0,000
812,520;  434,374;  212,188;    0,000
813,084;  433,349;  208,659;    0,000
813,647;  433,481;  205,902;    0,000
814,211;  436,513;  206,116;    0,000
814,775;  441,231;  207,559;    0,000
815,338;  444,292;  209,459;    0,000
815,902;  446,609;  209,330;    0,000
816,465;  451,799;  210,245;    0,000
817,029;  455,845;  213,345;    0,000
817,592;  454,563;  214,130;    0,000
818,155;  460,338;  219,102;    0,000
818,718;  462,241;  221,730;    0,000
819,282;  461,216;  221,345;    0,000
819,845;  464,505;  224,187;    0,000
820,408;  465,180;  225,659;    0,000
820,971;  467,841;  226,116;    0,000
821,534;  475,901;  230,387;    0,000
822,097;  473,676;  227,145;    0,000
822,660;  476,751;  228,587;    0,000
823,223;  477,969;  227,216;    0,000
823,786;  477,315;  225,959;    0,000
824,349;  479,147;  224,387;    0,000
824,911;  476,194;  219,687;    0,000
825,474;  476,268;  217,430;    0,000
826,037;  480,315;  219,573;    0,000
826,599;  482,818;  221,673;    0,000
827,162;  486,136;  222,673;    0,000
827,724;  485,639;  220,873;    0,000
828,287;  488,614;  223,359;    0,000
828,849;  490,632;  225,773;    0,000
829,412;  492,793;  225,916;    0,000
829,974;  493,425;  226,630;    0,000
830,536;  489,871;  221,630;    0,000
831,099;  490,417;  219,930;    0,000
831,661;  494,421;  222,501;    0,000
832,223;  493,853;  220,516;    0,000
832,785;  494,028;  218,044;    0,000
833,347;  492,774;  216,258;    0,000
833,909;  495,463;  213,658;    0,000
834,471;  500,053;  218,544;    0,000
835,033;  501,213;  220,444;    0,000
835,595;  502,402;  222,887;    0,000
836,157;  507,777;  224,758;    0,000
836,719;  511,195;  226,344;    0,000
837,281;  512,627;  226,244;    0,000
837,842;  515,073;  230,130;    0,000
838,404;  517,148;  227,615;    0,000
838,966;  515,466;  225,501;    0,000
839,527;  512,627;  217,387;    0,000
840,089;  506,916;  212,530;    0,000
840,650;  508,619;  213,287;    0,000
841,212;  509,523;  212,330;    0,000
841,773;  507,241;  207,844;    0,000
842,335;  505,587;  204,958;    0,000
842,896;  509,648;  205,144;    0,000
843,457;  514,694;  208,101;    0,000
844,018;  520,526;  212,244;    0,000
844,580;  523,915;  213,601;    0,000
845,141;  523,661;  212,401;    0,000
845,702;  524,922;  211,844;    0,000
846,263;  528,183;  212,315;    0,000
846,824;  528,143;  211,787;    0,000
847,385;  528,104;  211,958;    0,000
847,946;  526,179;  208,801;    0,000
848,507;  530,939;  210,215;    0,000
849,068;  530,743;  207,958;    0,000
849,628;  527,532;  203,158;    0,000
850,189;  524,178;  199,515;    0,000
850,750;  526,296;  201,586;    0,000
851,310;  528,700;  200,058;    0,000
851,871;  531,446;  200,001;    0,000
852,432;  526,321;  195,144;    0,000
852,992;  532,939;  201,329;    0,000
853,552;  536,399;  202,686;    0,000
854,113;  542,603;  206,858;    0,000
854,673;  543,135;  204,643;    0,000
855,234;  541,010;  204,786;    0,000
855,794;  548,113;  210,686;    0,000
856,354;  551,802;  210,286;    0,000
856,914;  551,963;  207,915;    0,000
857,474;  554,809;  209,786;    0,000
858,034;  558,184;  209,858;    0,000
858,595;  565,031;  213,458;    0,000
859,155;  567,020;  213,015;    0,000
859,714;  563,238;  207,800;    0,000
860,274;  568,084;  210,115;    0,000
860,834;  570,659;  208,658;    0,000
861,394;  573,734;  209,858;    0,000
861,954;  575,480;  210,472;    0,000
862,514;  576,055;  209,243;    0,000
863,073;  583,887;  212,086;    0,000
863,633;  583,905;  210,843;    0,000
864,192;  581,008;  208,229;    0,000
864,752;  580,369;  206,757;    0,000
865,311;  580,644;  205,300;    0,000
865,871;  577,219;  201,572;    0,000
866,430;  578,551;  200,000;    0,000
866,990;  576,783;  197,857;    0,000
867,549;  582,000;  196,529;    0,000
868,108;  584,075;  198,657;    0,000
868,667;  588,665;  201,500;    0,000
869,227;  593,725;  203,014;    0,000
869,786;  599,557;  205,643;    0,000
870,345;  599,961;  204,572;    0,000
870,904;  598,678;  199,229;    0,000
871,463;  597,482;  200,000;    0,000
872,022;  601,185;  201,257;    0,000
872,581;  602,275;  198,114;    0,000
873,140;  599,121;  194,157;    0,000
873,698;  600,124;  191,771;    0,000
874,257;  601,628;  193,129;    0,000
874,816;  604,885;  194,957;    0,000
875,374;  607,842;  193,657;    0,000
875,933;  607,485;  190,514;    0,000
876,492;  612,585;  194,557;    0,000
877,050;  614,628;  194,471;    0,000
877,609;  618,142;  195,200;    0,000
878,167;  617,585;  191,029;    0,000
878,725;  622,499;  194,157;    0,000
879,284;  627,285;  199,443;    0,000
879,842;  628,871;  195,786;    0,000
880,400;  633,271;  194,943;    0,000
880,958;  638,914;  195,043;    0,000
881,517;  642,328;  196,829;    0,000
882,075;  650,914;  200,986;    0,000
882,633;  655,128;  198,929;    0,000
883,191;  661,985;  196,043;    0,000
883,749;  666,928;  199,757;    0,000
884,307;  670,114;  201,371;    0,000
884,865;  672,799;  203,943;    0,000
885,422;  674,071;  202,986;    0,000
885,980;  679,771;  205,257;    0,000
886,538;  681,328;  206,586;    0,000
887,095;  684,199;  206,914;    0,000
887,653;  687,385;  204,743;    0,000
888,211;  693,899;  207,300;    0,000
888,768;  698,228;  208,000;    0,000
889,326;  703,514;  208,129;    0,000
889,883;  705,956;  205,600;    0,000
890,441;  709,414;  204,671;    0,000
890,998;  713,256;  208,143;    0,000
891,555;  722,414;  215,100;    0,000
892,112;  717,985;  210,614;    0,000
892,670;  724,671;  213,271;    0,000
893,227;  727,442;  210,914;    0,000
893,784;  727,071;  210,986;    0,000
894,341;  737,028;  215,586;    0,000
894,898;  737,342;  213,829;    0,000
895,455;  736,928;  212,043;    0,000
896,012;  739,142;  211,657;    0,000
896,569;  739,056;  209,643;    0,000
897,126;  743,342;  213,386;    0,000
897,682;  748,214;  213,429;    0,000
898,239;  747,442;  212,400;    0,000
898,796;  749,256;  212,557;    0,000
899,352;  753,456;  211,557;    0,000
899,909;  759,314;  213,743;    0,000
900,466;  764,814;  214,857;    0,000
901,022;  767,614;  216,971;    0,000
901,579;  766,742;  216,843;    0,000
902,135;  767,728;  212,614;    0,000
902,691;  770,828;  213,471;    0,000
903,248;  770,785;  212,471;    0,000
903,804;  770,356;  209,729;    0,000
904,360;  768,871;  209,886;    0,000
904,916;  771,999;  207,929;    0,000
905,472;  777,271;  210,529;    0,000
906,028;  777,299;  212,971;    0,000
906,584;  776,828;  210,543;    0,000
907,140;  778,085;  210,457;    0,000
907,696;  782,328;  210,314;    0,000
908,252;  786,585;  208,843;    0,000
908,808;  784,956;  207,071;    0,000
909,364;  788,056;  206,514;    0,000
909,920;  790,142;  207,514;    0,000
910,475;  793,485;  207,671;    0,000
911,031;  795,471;  208,000;    0,000
911,587;  792,685;  206,443;    0,000
912,142;  793,971;  206,114;    0,000
912,698;  797,114;  206,100;    0,000
913,253;  796,171;  201,814;    0,000
913,808;  801,185;  201,729;    0,000
914,364;  801,042;  199,386;    0,000
914,919;  803,885;  202,471;    0,000
915,474;  809,514;  207,086;    0,000
916,030;  808,899;  205,857;    0,000
916,585;  810,314;  207,214;    0,000
917,140;  809,828;  208,057;    0,000
917,695;  808,156;  205,657;    0,000
918,250;  812,871;  206,371;    0,000
918,805;  812,642;  201,357;    0,000
919,360;  814,142;  198,986;    0,000
919,915;  817,642;  200,171;    0,000
920,469;  821,399;  200,386;    0,000
921,024;  822,828;  199,814;    0,000
921,579;  826,799;  201,971;    0,000
922,134;  829,371;  201,729;    0,000
922,688;  835,228;  205,657;    0,000
923,243;  839,742;  209,543;    0,000
923,797;  841,414;  208,443;    0,000
924,352;  845,242;  208,786;    0,000
924,906;  851,599;  210,929;    0,000
925,461;  853,814;  210,800;    0,000
926,015;  852,971;  208,329;    0,000
926,569;  851,085;  204,857;    0,000
927,124;  853,585;  204,686;    0,000
927,678;  862,142;  207,986;    0,000
928,232;  862,071;  208,729;    0,000
928,786;  862,671;  209,143;    0,000
929,340;  869,328;  211,914;    0,000
929,894;  872,014;  212,543;    0,000
930,448;  876,285;  214,843;    0,000
931,002;  879,285;  214,729;    0,000
931,556;  876,114;  212,443;    0,000
932,110;  874,814;  208,286;    0,000
932,663;  881,742;  208,514;    0,000
933,217;  880,699;  205,686;    0,000
933,771;  884,456;  208,343;    0,000
934,324;  891,185;  206,286;    0,000
934,878;  890,842;  201,157;    0,000
935,432;  893,414;  202,514;    0,000
935,985;  898,999;  204,286;    0,000
936,538;  898,485;  204,214;    0,000
937,092;  899,014;  202,757;    0,000
937,645;  900,156;  201,729;    0,000
938,198;  898,371;  205,800;    0,000
938,752;  905,185;  209,871;    0,000
939,305;  910,356;  212,057;    0,000
939,858;  912,814;  212,114;    0,000
940,411;  915,171;  214,443;    0,000
940,964;  918,928;  216,486;    0,000
941,517;  920,856;  218,729;    0,000
942,070;  923,442;  218,443;    0,000
942,623;  924,656;  217,186;    0,000
943,176;  923,828;  215,529;    0,000
943,728;  922,714;  215,586;    0,000
944,281;  922,371;  210,157;    0,000
944,834;  923,356;  210,443;    0,000
945,387;  921,456;  207,214;    0,000
945,939;  924,342;  205,114;    0,000
946,492;  921,685;  205,143;    0,000
947,044;  922,642;  203,757;    0,000
947,597;  926,399;  203,514;    0,000
948,149;  929,885;  205,286;    0,000
948,701;  930,114;  203,514;    0,000
949,254;  938,614;  207,557;    0,000
949,806;  941,399;  207,900;    0,000
950,358;  945,014;  208,786;    0,000
950,910;  946,271;  207,943;    0,000
951,462;  945,699;  206,043;    0,000
952,014;  948,428;  208,657;    0,000
952,566;  946,485;  207,143;    0,000
953,118;  942,042;  206,486;    0,000
953,670;  939,342;  205,100;    0,000
954,222;  938,114;  202,457;    0,000
954,774;  939,085;  203,357;    0,000
955,326;  939,128;  204,314;    0,000
955,877;  938,914;  203,571;    0,000
956,429;  944,442;  207,714;    0,000
956,981;  947,399;  207,343;    0,000
957,532;  948,871;  207,314;    0,000
958,084;  951,128;  207,986;    0,000
958,635;  953,456;  209,729;    0,000
959,187;  958,171;  211,943;    0,000
959,738;  962,185;  211,371;    0,000
960,289;  966,928;  211,629;    0,000
960,840;  967,714;  208,471;    0,000
961,392;  970,885;  212,014;    0,000
961,943;  969,128;  210,700;    0,000
962,494;  971,771;  208,157;    0,000
963,045;  974,614;  205,386;    0,000
963,596;  972,771;  207,114;    0,000
964,147;  969,342;  204,643;    0,000
964,698;  972,656;  206,829;    0,000
965,249;  976,128;  205,843;    0,000
965,800;  975,756;  205,357;    0,000
966,350;  977,042;  207,714;    0,000
966,901;  973,171;  205,414;    0,000
967,452;  970,656;  201,671;    0,000
968,002;  970,814;  203,143;    0,000
968,553;  968,999;  203,243;    0,000
969,103;  963,114;  199,829;    0,000
969,654;  967,114;  200,971;    0,000
970,204;  962,499;  196,071;    0,000
970,755;  969,328;  201,929;    0,000
971,305;  965,771;  198,600;    0,000
971,855;  969,671;  199,529;    0,000
972,405;  970,514;  200,386;    0,000
972,956;  973,842;  202,300;    0,000
973,506;  971,199;  200,243;    0,000
974,056;  977,785;  205,757;    0,000
974,606;  975,328;  204,800;    0,000
975,156;  987,599;  212,000;    0,000
975,706;  985,056;  210,557;    0,000
976,255;  988,585;  208,914;    0,000
976,805;  984,714;  203,643;    0,000
977,355;  983,599;  202,271;    0,000
977,905;  980,485;  198,400;    0,000
978,454;  976,514;  193,571;    0,000
979,004;  974,171;  190,200;    0,000
979,554;  970,142;  183,971;    0,000
980,103;  968,928;  183,571;    0,000
980,653;  969,585;  188,286;    0,000
981,202;  971,442;  191,814;    0,000
981,751;  971,599;  192,229;    0,000
982,301;  971,285;  193,257;    0,000
982,850;  966,171;  195,100;    0,000
983,399;  969,699;  199,629;    0,000
983,948;  963,985;  197,286;    0,000
984,497;  963,142;  196,686;    0,000
985,047;  963,171;  197,186;    0,000
985,596;  960,056;  192,486;    0,000
986,144;  962,714;  192,314;    0,000
986,693;  963,814;  189,443;    0,000
987,242;  964,128;  188,129;    0,000
987,791;  963,085;  188,286;    0,000
988,340;  962,614;  186,943;    0,000
988,888;  961,185;  185,471;    0,000
989,437;  960,956;  189,371;    0,000
989,986;  955,942;  188,657;    0,000
990,534;  954,356;  191,471;    0,000
991,083;  951,271;  190,871;    0,000
991,631;  957,071;  196,000;    0,000
992,180;  954,914;  195,171;    0,000
992,728;  957,571;  197,200;    0,000
993,276;  958,228;  198,900;    0,000
993,825;  963,171;  202,886;    0,000
994,373;  962,256;  202,086;    0,000
994,921;  963,856;  204,029;    0,000
995,469;  960,285;  200,571;    0,000
996,017;  963,456;  203,457;    0,000
996,565;  959,442;  200,757;    0,000
997,113;  954,856;  197,871;    0,000
997,661;  951,828;  199,429;    0,000
998,209;  952,385;  197,343;    0,000
998,757;  951,142;  198,371;    0,000
999,304;  952,885;  203,157;    0,000
999,852;  948,985;  201,429;    0,000
1000,400;  949,699;  203,300;    0,000
1000,947;  950,585;  205,343;    0,000
1001,495;  948,628;  203,743;    0,000
1002,042;  944,999;  206,457;    0,000
1002,590;  943,756;  206,086;    0,000
1003,137;  940,242;  204,214;    0,000
1003,684;  944,399;  208,486;    0,000
1004,232;  942,456;  208,729;    0,000
1004,779;  936,828;  208,643;    0,000
1005,326;  932,514;  206,757;    0,000
1005,873;  932,356;  207,143;    0,000
1006,420;  935,328;  211,114;    0,000
1006,967;  930,699;  206,957;    0,000
1007,514;  926,528;  203,314;    0,000
1008,061;  922,271;  201,657;    0,000
1008,608;  924,999;  203,329;    0,000
1009,155;  924,928;  207,614;    0,000
1009,702;  920,756;  205,000;    0,000
1010,248;  914,528;  202,100;    0,000
1010,795;  916,699;  204,300;    0,000
1011,342;  915,928;  208,243;    0,000
1011,888;  916,871;  210,971;    0,000
1012,435;  912,342;  210,100;    0,000
1012,981;  910,342;  208,757;    0,000
1013,528;  910,456;  211,629;    0,000
1014,074;  908,828;  213,329;    0,000
1014,620;  908,499;  216,514;    0,000
1015,166;  904,628;  216,100;    0,000
1015,713;  902,185;  215,086;    0,000
1016,259;  901,914;  214,414;    0,000
1016,805;  897,856;  212,086;    0,000
1017,351;  894,642;  210,986;    0,000
1017,897;  890,228;  207,929;    0,000
1018,443;  882,971;  203,700;    0,000
1018,989;  881,228;  201,800;    0,000
1019,535;  878,499;  202,029;    0,000
1020,080;  876,099;  201,886;    0,000
1020,626;  878,285;  204,200;    0,000
1021,172;  877,042;  203,843;    0,000
1021,717;  871,442;  202,200;    0,000
1022,263;  870,942;  206,886;    0,000
1022,809;  867,385;  206,486;    0,000
1023,354;  865,042;  209,643;    0,000
1023,900;  855,814;  205,900;    0,000
1024,445;  846,314;  202,114;    0,000
1024,990;  839,828;  201,914;    0,000
1025,536;  836,256;  203,629;    0,000
1026,081;  828,728;  198,914;    0,000
1026,626;  820,028;  197,157;    0,000
1027,171;  811,385;  194,043;    0,000
1027,716;  813,171;  198,900;    0,000
1028,261;  807,771;  198,414;    0,000
1028,806;  802,642;  199,357;    0,000
1029,351;  795,985;  199,557;    0,000
1029,896;  795,556;  204,486;    0,000
1030,441;  791,728;  204,186;    0,000
1030,985;  786,456;  202,729;    0,000
1031,530;  777,428;  199,843;    0,000
1032,075;  773,514;  199,386;    0,000
1032,619;  773,642;  202,371;    0,000
1033,164;  770,842;  199,014;    0,000
1033,708;  763,614;  196,229;    0,000
1034,253;  756,356;  195,171;    0,000
1034,797;  752,014;  196,900;    0,000
1035,341;  747,956;  196,300;    0,000
1035,886;  745,828;  198,214;    0,000
1036,430;  739,399;  194,886;    0,000
1036,974;  739,514;  200,843;    0,000
1037,518;  735,228;  199,957;    0,000
1038,062;  733,285;  200,200;    0,000
1038,606;  731,271;  198,786;    0,000
1039,150;  727,914;  198,700;    0,000
1039,694;  722,656;  199,443;    0,000
1040,238;  715,785;  197,314;    0,000
1040,782;  708,242;  193,514;    0,000
1041,326;  703,342;  195,229;    0,000
1041,869;  701,342;  200,443;    0,000
1042,413;  697,099;  202,686;    0,000
1042,957;  693,085;  206,229;    0,000
1043,500;  688,256;  205,186;    0,000
1044,044;  684,828;  206,314;    0,000
1044,587;  680,571;  205,671;    0,000
1045,130;  678,742;  207,600;    0,000
1045,674;  673,914;  203,986;    0,000
1046,217;  671,385;  207,171;    0,000
1046,760;  665,271;  205,400;    0,000
1047,304;  660,785;  203,957;    0,000
1047,847;  656,599;  206,157;    0,000
1048,390;  655,171;  208,329;    0,000
1048,933;  649,542;  205,200;    0,000
1049,476;  645,871;  208,371;    0,000
1050,019;  641,414;  206,486;    0,000
1050,562;  640,799;  206,114;    0,000
1051,104;  635,585;  209,886;    0,000
1051,647;  634,185;  213,986;    0,000
1052,190;  630,785;  215,529;    0,000
1052,732;  625,142;  214,014;    0,000
1053,275;  617,185;  208,643;    0,000
1053,818;  611,399;  204,271;    0,000
1054,360;  604,842;  205,571;    0,000
1054,902;  608,671;  205,771;    0,000
1055,445;  599,756;  198,400;    0,000
1055,987;  596,085;  200,657;    0,000
1056,530;  592,899;  203,357;    0,000
1057,072;  589,871;  206,900;    0,000
1057,614;  582,756;  204,957;    0,000
1058,156;  585,142;  207,871;    0,000
1058,698;  572,856;  205,343;    0,000
1059,240;  572,914;  209,257;    0,000
1059,782;  565,971;  204,786;    0,000
1060,324;  561,714;  202,243;    0,000
1060,866;  558,856;  204,014;    0,000
1061,408;  559,856;  209,786;    0,000
1061,949;  552,028;  208,729;    0,000
1062,491;  550,099;  209,857;    0,000
1063,033;  544,299;  209,486;    0,000
1063,574;  539,328;  209,071;    0,000
1064,116;  533,714;  208,843;    0,000
1064,657;  532,142;  207,271;    0,000
1065,199;  531,499;  207,314;    0,000
1065,740;  528,714;  206,343;    0,000
1066,281;  527,542;  208,214;    0,000
1066,823;  522,042;  203,557;    0,000
1067,364;  522,914;  209,071;    0,000
1067,905;  523,371;  212,771;    0,000
1068,446;  519,271;  211,871;    0,000
1068,987;  513,842;  209,557;    0,000
1069,528;  510,485;  210,071;    0,000
1070,069;  509,285;  213,629;    0,000
1070,610;  508,085;  215,843;    0,000
1071,151;  502,228;  210,871;    0,000
1071,692;  497,671;  209,571;    0,000
1072,232;  491,585;  208,329;    0,000
1072,773;  488,556;  209,271;    0,000
1073,314;  487,242;  207,229;    0,000
1073,854;  480,842;  203,714;    0,000
1074,395;  478,542;  204,443;    0,000
1074,935;  475,914;  205,757;    0,000
1075,476;  473,742;  204,171;    0,000
1076,016;  476,114;  205,471;    0,000
1076,556;  473,256;  205,529;    0,000
1077,097;  469,928;  207,929;    0,000
1077,637;  468,214;  207,157;    0,000
1078,177;  464,785;  205,457;    0,000
1078,717;  464,756;  206,157;    0,000
1079,257;  463,842;  208,414;    0,000
1079,797;  463,842;  212,700;    0,000
1080,337;  461,556;  213,114;    0,000
1080,877;  456,514;  210,571;    0,000
1081,417;  455,014;  208,643;    0,000
1081,956;  453,085;  208,014;    0,000
1082,496;  450,399;  204,657;    0,000
1083,036;  447,185;  204,514;    0,000
1083,575;  441,742;  199,457;    0,000
1084,115;  436,742;  196,371;    0,000
1084,655;  438,085;  197,114;    0,000
1085,194;  439,242;  200,114;    0,000
1085,733;  438,785;  201,643;    0,000
1086,273;  434,056;  204,229;    0,000
1086,812;  435,056;  206,129;    0,000
1087,351;  435,142;  209,457;    0,000
1087,890;  432,128;  209,457;    0,000
1088,429;  429,499;  210,943;    0,000
1088,969;  425,142;  207,414;    0,000
1089,507;  424,599;  208,514;    0,000
1090,047;  423,828;  208,529;    0,000
1090,585;  419,185;  203,600;    0,000
1091,124;  415,928;  201,400;    0,000
1091,663;  417,099;  203,414;    0,000
1092,202;  419,614;  204,186;    0,000
1092,740;  417,371;  207,100;    0,000
1093,279;  412,071;  204,657;    0,000
1093,818;  409,428;  203,186;    0,000
1094,356;  407,756;  204,686;    0,000
1094,895;  404,642;  205,186;    0,000
1095,433;  400,499;  203,586;    0,000
1095,971;  395,842;  203,143;    0,000
1096,510;  393,199;  201,000;    0,000
1097,048;  392,142;  201,457;    0,000
1097,586;  392,399;  202,757;    0,000
1098,124;  390,385;  205,171;    0,000
1098,662;  391,199;  206,129;    0,000
1099,200;  390,714;  206,814;    0,000
1099,738;  387,256;  206,286;    0,000
1100,276;  388,971;  210,357;    0,000

