BB_120A_81
Integration time [ms]: 500,000
Averaging Nr. [scans]: 10
Smoothing Nr. [pixels]: 3
Data measured with spectrometer [name]: 7516255SP
Wave   ;Sample   ;Dark     ;Reference
[nm]   ;[counts] ;[counts] ;[counts] 

177,229;  783,317;  246,500;    0,000
177,829;  799,982;  244,100;    0,000
178,430;  798,683;  247,950;    0,000
179,030;  796,594;  248,171;    0,000
179,630;  796,635;  250,214;    0,000
180,230;  772,936;  247,000;    0,000
180,830;  789,605;  250,743;    0,000
181,430;  807,890;  247,329;    0,000
182,030;  772,119;  252,600;    0,000
182,630;  743,776;  250,629;    0,000
183,230;  738,765;  255,686;    0,000
183,830;  726,034;  255,229;    0,000
184,430;  730,515;  260,300;    0,000
185,030;  721,818;  261,701;    0,000
185,630;  704,370;  264,017;    0,000
186,229;  698,639;  262,761;    0,000
186,829;  744,000;  264,219;    0,000
187,429;  734,919;  258,963;    0,000
188,029;  707,831;  261,151;    0,000
188,628;  689,674;  259,952;    0,000
189,228;  689,946;  260,352;    0,000
189,828;  677,691;  260,896;    0,000
190,428;  690,634;  262,440;    0,000
191,027;  649,773;  262,598;    0,000
191,627;  690,466;  263,755;    0,000
192,227;  702,162;  260,655;    0,000
192,826;  738,344;  259,584;    0,000
193,426;  722,869;  256,684;    0,000
194,025;  738,981;  258,468;    0,000
194,625;  754,796;  255,010;    0,000
195,224;  774,891;  251,038;    0,000
195,824;  722,267;  247,551;    0,000
196,423;  712,098;  249,451;    0,000
197,023;  681,550;  241,551;    0,000
197,622;  682,843;  246,593;    0,000
198,221;  662,362;  241,736;    0,000
198,821;  643,567;  240,136;    0,000
199,420;  660,616;  238,835;    0,000
200,019;  657,175;  236,607;    0,000
200,619;  673,804;  236,978;    0,000
201,218;  650,892;  240,392;    0,000
201,817;  650,536;  233,250;    0,000
202,416;  644,639;  238,907;    0,000
203,016;  688,426;  238,549;    0,000
203,615;  635,698;  241,292;    0,000
204,214;  644,684;  242,307;    0,000
204,813;  633,127;  244,378;    0,000
205,412;  674,258;  244,535;    0,000
206,011;  686,028;  246,164;    0,000
206,610;  673,214;  237,335;    0,000
207,209;  629,369;  234,564;    0,000
207,808;  637,110;  235,521;    0,000
208,407;  613,583;  237,135;    0,000
209,006;  607,824;  231,149;    0,000
209,605;  575,568;  235,249;    0,000
210,204;  584,254;  232,521;    0,000
210,803;  585,840;  234,649;    0,000
211,402;  589,683;  237,549;    0,000
212,001;  624,755;  237,221;    0,000
212,599;  645,229;  236,506;    0,000
213,198;  674,015;  238,564;    0,000
213,797;  711,528;  233,906;    0,000
214,396;  715,998;  238,278;    0,000
214,994;  726,740;  237,249;    0,000
215,593;  707,014;  237,392;    0,000
216,192;  667,314;  235,535;    0,000
216,790;  713,254;  237,421;    0,000
217,389;  678,253;  238,892;    0,000
217,988;  652,681;  240,978;    0,000
218,586;  609,253;  236,707;    0,000
219,185;  589,039;  234,435;    0,000
219,783;  595,008;  232,592;    0,000
220,382;  605,120;  235,121;    0,000
220,980;  581,836;  235,021;    0,000
221,579;  591,466;  235,835;    0,000
222,177;  602,780;  235,278;    0,000
222,776;  636,610;  235,449;    0,000
223,374;  666,538;  239,135;    0,000
223,972;  664,711;  240,049;    0,000
224,571;  699,326;  237,164;    0,000
225,169;  639,111;  238,135;    0,000
225,767;  634,828;  235,292;    0,000
226,366;  626,827;  237,906;    0,000
226,964;  617,756;  238,321;    0,000
227,562;  613,414;  237,835;    0,000
228,160;  593,913;  238,092;    0,000
228,758;  547,558;  235,635;    0,000
229,356;  577,899;  235,492;    0,000
229,955;  578,498;  235,949;    0,000
230,553;  569,028;  235,792;    0,000
231,151;  556,040;  233,421;    0,000
231,749;  535,527;  234,721;    0,000
232,347;  603,570;  236,378;    0,000
232,945;  631,396;  237,907;    0,000
233,543;  649,196;  238,421;    0,000
234,141;  664,180;  233,707;    0,000
234,739;  673,152;  234,049;    0,000
235,337;  651,151;  239,164;    0,000
235,934;  667,205;  240,092;    0,000
236,532;  613,192;  241,850;    0,000
237,130;  591,476;  243,264;    0,000
237,728;  584,234;  244,092;    0,000
238,326;  529,693;  249,950;    0,000
238,923;  540,518;  245,193;    0,000
239,521;  564,076;  241,321;    0,000
240,119;  563,820;  235,707;    0,000
240,716;  585,737;  234,492;    0,000
241,314;  573,896;  231,364;    0,000
241,912;  558,666;  225,549;    0,000
242,509;  605,381;  230,807;    0,000
243,107;  575,852;  235,635;    0,000
243,704;  581,796;  236,392;    0,000
244,302;  540,810;  244,049;    0,000
244,899;  543,926;  243,121;    0,000
245,497;  544,844;  246,821;    0,000
246,094;  594,917;  245,292;    0,000
246,692;  604,375;  239,021;    0,000
247,289;  581,206;  234,021;    0,000
247,887;  565,009;  236,549;    0,000
248,484;  606,293;  234,692;    0,000
249,081;  592,706;  230,249;    0,000
249,679;  593,203;  228,406;    0,000
250,276;  512,832;  232,249;    0,000
250,873;  497,219;  233,121;    0,000
251,470;  543,490;  240,392;    0,000
252,067;  538,206;  233,878;    0,000
252,665;  509,634;  233,292;    0,000
253,262;  500,062;  236,963;    0,000
253,859;  511,575;  240,335;    0,000
254,456;  523,260;  242,163;    0,000
255,053;  530,776;  240,306;    0,000
255,650;  533,947;  239,549;    0,000
256,247;  567,719;  241,278;    0,000
256,844;  573,436;  237,535;    0,000
257,441;  556,226;  242,049;    0,000
258,038;  573,183;  233,377;    0,000
258,635;  620,556;  236,663;    0,000
259,232;  609,526;  235,135;    0,000
259,829;  604,923;  234,249;    0,000
260,426;  580,979;  235,006;    0,000
261,022;  600,104;  238,578;    0,000
261,619;  642,502;  235,764;    0,000
262,216;  611,803;  240,035;    0,000
262,813;  600,159;  233,921;    0,000
263,409;  611,073;  236,878;    0,000
264,006;  611,934;  235,878;    0,000
264,603;  586,992;  238,220;    0,000
265,199;  595,936;  238,863;    0,000
265,796;  542,580;  233,806;    0,000
266,393;  598,480;  241,092;    0,000
266,989;  594,108;  241,006;    0,000
267,586;  585,222;  240,849;    0,000
268,182;  564,447;  243,492;    0,000
268,779;  630,848;  243,992;    0,000
269,375;  626,249;  245,206;    0,000
269,971;  627,190;  243,035;    0,000
270,568;  555,661;  239,363;    0,000
271,164;  513,703;  238,049;    0,000
271,761;  515,019;  239,421;    0,000
272,357;  531,519;  234,863;    0,000
272,953;  468,388;  234,935;    0,000
273,550;  462,446;  235,378;    0,000
274,146;  489,631;  240,049;    0,000
274,742;  507,548;  240,178;    0,000
275,338;  545,935;  240,521;    0,000
275,934;  525,648;  243,349;    0,000
276,531;  475,819;  241,978;    0,000
277,127;  469,233;  240,135;    0,000
277,723;  476,044;  237,049;    0,000
278,319;  423,129;  234,764;    0,000
278,915;  428,713;  239,078;    0,000
279,511;  387,267;  232,907;    0,000
280,107;  384,667;  232,264;    0,000
280,703;  403,995;  234,135;    0,000
281,299;  423,753;  234,892;    0,000
281,895;  406,523;  235,021;    0,000
282,491;  457,006;  234,878;    0,000
283,086;  463,205;  235,178;    0,000
283,682;  476,534;  240,407;    0,000
284,278;  509,063;  237,535;    0,000
284,874;  512,432;  235,107;    0,000
285,470;  538,402;  238,621;    0,000
286,065;  506,774;  238,550;    0,000
286,661;  499,746;  242,621;    0,000
287,257;  476,545;  235,707;    0,000
287,852;  493,072;  237,850;    0,000
288,448;  467,542;  236,607;    0,000
289,044;  446,587;  236,907;    0,000
289,639;  414,732;  233,950;    0,000
290,235;  426,560;  231,050;    0,000
290,830;  431,860;  228,907;    0,000
291,426;  429,031;  226,707;    0,000
292,021;  434,860;  227,721;    0,000
292,617;  419,032;  224,664;    0,000
293,212;  427,403;  225,221;    0,000
293,807;  395,433;  222,750;    0,000
294,403;  390,376;  229,278;    0,000
294,998;  362,949;  230,678;    0,000
295,593;  348,337;  231,064;    0,000
296,189;  353,265;  229,864;    0,000
296,784;  345,512;  229,049;    0,000
297,379;  364,156;  231,092;    0,000
297,974;  381,872;  235,106;    0,000
298,570;  391,031;  227,849;    0,000
299,165;  385,843;  224,992;    0,000
299,760;  382,615;  225,321;    0,000
300,355;  328,445;  228,921;    0,000
300,950;  334,946;  231,735;    0,000
301,545;  324,331;  232,621;    0,000
302,140;  362,169;  231,064;    0,000
302,735;  378,812;  232,049;    0,000
303,330;  390,370;  236,049;    0,000
303,925;  411,225;  235,949;    0,000
304,520;  434,251;  234,449;    0,000
305,115;  420,647;  236,307;    0,000
305,709;  397,863;  232,021;    0,000
306,304;  388,121;  229,064;    0,000
306,899;  352,607;  226,607;    0,000
307,494;  357,208;  225,964;    0,000
308,089;  379,896;  222,292;    0,000
308,683;  393,457;  222,035;    0,000
309,278;  435,729;  217,821;    0,000
309,873;  422,745;  221,635;    0,000
310,467;  416,006;  225,692;    0,000
311,062;  423,194;  229,878;    0,000
311,656;  462,709;  228,035;    0,000
312,251;  428,596;  233,449;    0,000
312,846;  422,340;  233,563;    0,000
313,440;  395,811;  238,392;    0,000
314,035;  443,840;  235,235;    0,000
314,629;  435,880;  236,820;    0,000
315,223;  435,036;  239,920;    0,000
315,818;  386,579;  242,178;    0,000
316,412;  397,547;  239,749;    0,000
317,006;  396,100;  239,292;    0,000
317,601;  374,741;  235,978;    0,000
318,195;  360,896;  241,921;    0,000
318,789;  363,166;  240,078;    0,000
319,384;  344,450;  239,507;    0,000
319,978;  334,305;  234,821;    0,000
320,572;  333,294;  237,950;    0,000
321,166;  334,665;  240,607;    0,000
321,760;  372,566;  242,092;    0,000
322,354;  402,725;  238,864;    0,000
322,948;  403,167;  237,778;    0,000
323,542;  431,640;  235,578;    0,000
324,136;  435,498;  237,978;    0,000
324,730;  449,457;  237,349;    0,000
325,324;  441,718;  233,963;    0,000
325,918;  449,563;  233,006;    0,000
326,512;  432,637;  233,192;    0,000
327,106;  413,126;  236,363;    0,000
327,700;  458,798;  233,149;    0,000
328,294;  470,911;  235,877;    0,000
328,887;  422,485;  234,720;    0,000
329,481;  449,299;  236,106;    0,000
330,075;  434,529;  234,634;    0,000
330,669;  403,943;  232,520;    0,000
331,262;  401,557;  226,577;    0,000
331,856;  335,046;  226,992;    0,000
332,449;  321,747;  225,963;    0,000
333,043;  362,189;  228,077;    0,000
333,637;  341,219;  224,620;    0,000
334,230;  335,163;  224,334;    0,000
334,824;  352,666;  224,734;    0,000
335,417;  330,068;  225,320;    0,000
336,011;  315,711;  224,977;    0,000
336,604;  317,312;  218,520;    0,000
337,197;  311,556;  213,805;    0,000
337,791;  340,783;  214,663;    0,000
338,384;  325,481;  213,991;    0,000
338,977;  317,438;  212,834;    0,000
339,571;  327,436;  211,249;    0,000
340,164;  373,293;  210,091;    0,000
340,757;  387,694;  217,863;    0,000
341,350;  401,023;  217,548;    0,000
341,943;  352,939;  214,991;    0,000
342,537;  378,082;  211,906;    0,000
343,130;  351,255;  210,448;    0,000
343,723;  365,671;  213,891;    0,000
344,316;  332,244;  212,191;    0,000
344,909;  361,530;  209,620;    0,000
345,502;  334,474;  214,991;    0,000
346,095;  321,275;  217,477;    0,000
346,688;  318,904;  223,720;    0,000
347,281;  344,036;  223,891;    0,000
347,874;  361,123;  223,234;    0,000
348,466;  354,436;  232,305;    0,000
349,059;  313,909;  232,305;    0,000
349,652;  303,610;  227,905;    0,000
350,245;  318,681;  227,862;    0,000
350,838;  295,667;  224,748;    0,000
351,430;  277,908;  226,791;    0,000
352,023;  257,821;  222,262;    0,000
352,616;  256,536;  214,477;    0,000
353,208;  256,316;  215,991;    0,000
353,801;  251,473;  220,548;    0,000
354,393;  246,518;  221,248;    0,000
354,986;  255,773;  222,963;    0,000
355,578;  271,086;  222,991;    0,000
356,171;  281,414;  227,734;    0,000
356,763;  283,489;  231,677;    0,000
357,356;  277,917;  228,805;    0,000
357,948;  306,774;  225,205;    0,000
358,541;  296,817;  225,734;    0,000
359,133;  312,073;  227,063;    0,000
359,725;  294,419;  225,562;    0,000
360,318;  294,288;  222,305;    0,000
360,910;  281,401;  223,048;    0,000
361,502;  287,803;  223,791;    0,000
362,094;  296,087;  224,248;    0,000
362,686;  318,216;  218,677;    0,000
363,279;  316,371;  215,248;    0,000
363,871;  326,628;  219,305;    0,000
364,463;  304,401;  221,777;    0,000
365,055;  344,186;  218,034;    0,000
365,647;  333,315;  218,791;    0,000
366,239;  294,200;  216,263;    0,000
366,831;  291,814;  221,691;    0,000
367,423;  268,372;  224,605;    0,000
368,015;  282,955;  221,120;    0,000
368,607;  279,743;  221,420;    0,000
369,198;  254,003;  224,748;    0,000
369,790;  268,960;  222,805;    0,000
370,382;  255,961;  222,448;    0,000
370,974;  232,548;  219,391;    0,000
371,565;  224,521;  217,891;    0,000
372,157;  187,493;  216,862;    0,000
372,749;  219,404;  216,705;    0,000
373,341;  212,088;  210,891;    0,000
373,932;  208,829;  217,363;    0,000
374,524;  243,201;  220,948;    0,000
375,115;  287,872;  222,748;    0,000
375,707;  290,372;  225,720;    0,000
376,298;  296,989;  228,977;    0,000
376,890;  297,902;  228,691;    0,000
377,481;  301,892;  233,534;    0,000
378,073;  314,922;  226,877;    0,000
378,664;  283,993;  228,148;    0,000
379,255;  273,679;  226,948;    0,000
379,847;  263,590;  226,062;    0,000
380,438;  286,703;  223,162;    0,000
381,029;  251,972;  223,205;    0,000
381,620;  242,799;  220,105;    0,000
382,212;  212,554;  221,491;    0,000
382,803;  229,978;  219,491;    0,000
383,394;  191,620;  218,234;    0,000
383,985;  205,519;  215,306;    0,000
384,576;  179,673;  219,520;    0,000
385,167;  179,408;  216,706;    0,000
385,758;  184,043;  218,521;    0,000
386,349;  205,549;  214,407;    0,000
386,940;  205,282;  215,479;    0,000
387,531;  233,239;  220,393;    0,000
388,122;  241,754;  221,951;    0,000
388,713;  256,328;  214,109;    0,000
389,304;  244,044;  216,380;    0,000
389,895;  247,874;  215,895;    0,000
390,485;  234,515;  225,453;    0,000
391,076;  227,920;  220,339;    0,000
391,667;  229,870;  219,296;    0,000
392,258;  215,477;  217,654;    0,000
392,848;  206,186;  221,997;    0,000
393,439;  220,428;  216,911;    0,000
394,030;  207,759;  213,611;    0,000
394,620;  218,221;  210,539;    0,000
395,211;  217,757;  213,968;    0,000
395,801;  182,008;  212,382;    0,000
396,392;  186,060;  212,710;    0,000
396,982;  190,011;  212,795;    0,000
397,573;  196,089;  219,895;    0,000
398,163;  198,509;  223,795;    0,000
398,753;  183,712;  219,880;    0,000
399,344;  174,723;  216,523;    0,000
399,934;  194,805;  212,895;    0,000
400,524;  202,958;  213,852;    0,000
401,115;  185,341;  214,410;    0,000
401,705;  176,039;  207,352;    0,000
402,295;  176,736;  207,567;    0,000
402,885;  167,393;  205,610;    0,000
403,475;  174,638;  206,610;    0,000
404,065;  167,470;  207,595;    0,000
404,655;  151,616;  206,095;    0,000
405,245;  178,832;  203,409;    0,000
405,835;  170,306;  211,124;    0,000
406,425;  179,622;  211,652;    0,000
407,015;  195,393;  213,681;    0,000
407,605;  198,680;  216,495;    0,000
408,195;  180,909;  221,523;    0,000
408,785;  183,738;  221,809;    0,000
409,375;  173,035;  224,638;    0,000
409,965;  212,847;  223,695;    0,000
410,554;  236,277;  226,838;    0,000
411,144;  214,134;  229,466;    0,000
411,734;  216,392;  229,352;    0,000
412,324;  228,992;  226,666;    0,000
412,913;  235,351;  227,938;    0,000
413,503;  238,082;  232,009;    0,000
414,092;  215,766;  233,809;    0,000
414,682;  180,897;  230,552;    0,000
415,271;  172,099;  227,466;    0,000
415,861;  165,628;  224,352;    0,000
416,450;  166,171;  226,323;    0,000
417,040;  151,271;  225,923;    0,000
417,629;  136,900;  221,352;    0,000
418,219;  124,160;  218,009;    0,000
418,808;  115,832;  218,137;    0,000
419,397;  146,976;  218,195;    0,000
419,986;  148,849;  224,880;    0,000
420,576;  179,351;  226,266;    0,000
421,165;  197,609;  227,480;    0,000
421,754;  198,381;  223,623;    0,000
422,343;  219,853;  227,609;    0,000
422,932;  228,410;  224,694;    0,000
423,521;  207,353;  226,809;    0,000
424,111;  184,109;  220,352;    0,000
424,700;  144,722;  220,494;    0,000
425,289;  118,038;  218,980;    0,000
425,878;  116,967;  221,823;    0,000
426,466;   99,494;  217,809;    0,000
427,055;   89,807;  219,380;    0,000
427,644;  121,978;  219,766;    0,000
428,233;  147,250;  224,694;    0,000
428,822;  180,977;  222,209;    0,000
429,411;  187,906;  221,980;    0,000
429,999;  183,263;  225,352;    0,000
430,588;  196,905;  222,009;    0,000
431,177;  206,161;  222,495;    0,000
431,766;  167,789;  223,252;    0,000
432,354;  156,105;  223,766;    0,000
432,943;  121,460;  220,652;    0,000
433,531;  117,859;  222,280;    0,000
434,120;  135,402;  220,723;    0,000
434,708;  146,847;  224,952;    0,000
435,297;  149,161;  226,752;    0,000
435,885;  140,232;  223,309;    0,000
436,474;  136,720;  218,280;    0,000
437,062;  154,037;  218,380;    0,000
437,650;  181,039;  215,237;    0,000
438,239;  160,898;  210,866;    0,000
438,827;  152,214;  206,880;    0,000
439,415;  151,616;  202,723;    0,000
440,003;  155,905;  204,665;    0,000
440,592;  174,463;  205,523;    0,000
441,180;  158,121;  207,437;    0,000
441,768;  133,478;  206,123;    0,000
442,356;  146,037;  210,251;    0,000
442,944;  126,896;  214,151;    0,000
443,532;  150,298;  217,522;    0,000
444,120;  153,855;  211,722;    0,000
444,708;  123,984;  213,079;    0,000
445,296;  120,887;  211,108;    0,000
445,884;  122,902;  214,308;    0,000
446,472;  109,730;  213,351;    0,000
447,060;  111,845;  211,565;    0,000
447,647;   77,216;  210,394;    0,000
448,235;   87,132;  217,108;    0,000
448,823;  102,946;  215,479;    0,000
449,411;   98,531;  217,622;    0,000
449,998;   94,331;  214,865;    0,000
450,586;  133,517;  215,108;    0,000
451,173;  131,318;  219,051;    0,000
451,761;  157,518;  218,708;    0,000
452,349;  154,662;  219,294;    0,000
452,936;  149,718;  223,751;    0,000
453,524;  153,620;  222,765;    0,000
454,111;  152,364;  224,151;    0,000
454,698;  118,064;  224,951;    0,000
455,286;  128,838;  227,565;    0,000
455,873;  107,066;  229,751;    0,000
456,461;  103,342;  230,350;    0,000
457,048;  100,002;  227,193;    0,000
457,635;   93,102;  229,765;    0,000
458,222;   89,146;  232,650;    0,000
458,810;   91,346;  236,022;    0,000
459,397;   65,618;  227,307;    0,000
459,984;   77,404;  229,179;    0,000
460,571;   66,387;  223,807;    0,000
461,158;   62,501;  221,050;    0,000
461,745;   70,458;  219,465;    0,000
462,332;   72,871;  219,150;    0,000
462,919;   71,243;  216,507;    0,000
463,506;   78,670;  224,379;    0,000
464,093;   81,856;  221,208;    0,000
464,680;   98,628;  223,650;    0,000
465,267;  105,869;  227,936;    0,000
465,853;  120,526;  226,450;    0,000
466,440;  132,256;  228,150;    0,000
467,027;  132,114;  228,893;    0,000
467,614;  142,929;  224,979;    0,000
468,200;  148,888;  229,750;    0,000
468,787;  150,460;  227,607;    0,000
469,374;  152,837;  227,636;    0,000
469,960;  148,981;  230,007;    0,000
470,547;  158,368;  226,878;    0,000
471,133;  168,598;  223,678;    0,000
471,720;  161,084;  224,207;    0,000
472,306;  153,371;  224,064;    0,000
472,893;  146,254;  224,193;    0,000
473,479;  161,554;  228,793;    0,000
474,065;  144,310;  227,350;    0,000
474,652;  110,452;  229,721;    0,000
475,238;  100,852;  232,321;    0,000
475,824;   98,310;  227,664;    0,000
476,410;  126,496;  230,321;    0,000
476,997;  153,241;  234,007;    0,000
477,583;  143,902;  230,035;    0,000
478,169;  158,661;  231,707;    0,000
478,755;  183,562;  231,592;    0,000
479,341;  185,632;  226,593;    0,000
479,927;  194,131;  227,650;    0,000
480,513;  162,231;  225,593;    0,000
481,099;  128,945;  222,950;    0,000
481,685;  118,143;  223,607;    0,000
482,271;  121,813;  223,636;    0,000
482,857;  110,170;  218,550;    0,000
483,443;  116,899;  226,707;    0,000
484,028;   98,159;  224,193;    0,000
484,614;   84,817;  222,750;    0,000
485,200;   72,485;  217,993;    0,000
485,786;   83,715;  215,093;    0,000
486,371;   90,616;  218,564;    0,000
486,957;   87,062;  223,064;    0,000
487,543;   81,577;  220,421;    0,000
488,128;   91,646;  222,050;    0,000
488,714;  102,832;  222,778;    0,000
489,299;  115,793;  231,150;    0,000
489,885;  119,566;  229,264;    0,000
490,470;  126,593;  225,435;    0,000
491,055;  127,649;  222,307;    0,000
491,641;  120,206;  223,335;    0,000
492,226;  120,480;  230,850;    0,000
492,811;  114,510;  226,235;    0,000
493,397;  109,738;  227,092;    0,000
493,982;  101,096;  228,107;    0,000
494,567;   74,053;  229,449;    0,000
495,152;   70,168;  230,678;    0,000
495,738;   64,410;  227,464;    0,000
496,323;   64,024;  223,707;    0,000
496,908;   58,240;  226,849;    0,000
497,493;   54,395;  224,092;    0,000
498,078;   57,568;  225,635;    0,000
498,663;   54,111;  223,507;    0,000
499,248;   64,639;  221,935;    0,000
499,833;   62,843;  219,906;    0,000
500,417;   53,786;  216,335;    0,000
501,002;   56,900;  214,064;    0,000
501,587;   61,016;  209,635;    0,000
502,172;   56,771;  210,249;    0,000
502,757;   77,615;  208,278;    0,000
503,341;   73,687;  210,749;    0,000
503,926;   94,070;  209,249;    0,000
504,511;  116,169;  208,564;    0,000
505,095;  114,441;  217,449;    0,000
505,680;  116,440;  218,707;    0,000
506,264;  112,285;  227,364;    0,000
506,849;   77,056;  221,006;    0,000
507,433;   85,329;  225,364;    0,000
508,018;   80,074;  229,992;    0,000
508,602;   66,674;  232,764;    0,000
509,186;   69,017;  229,463;    0,000
509,771;   76,689;  228,206;    0,000
510,355;   84,204;  222,806;    0,000
510,939;  109,788;  225,792;    0,000
511,524;  108,230;  223,806;    0,000
512,108;   91,261;  222,192;    0,000
512,692;  107,545;  223,792;    0,000
513,276;  112,145;  216,921;    0,000
513,860;  116,701;  220,621;    0,000
514,444;  122,185;  217,878;    0,000
515,028;  114,830;  223,378;    0,000
515,612;   95,158;  219,278;    0,000
516,196;  104,630;  220,749;    0,000
516,780;   84,860;  221,721;    0,000
517,364;   94,289;  224,721;    0,000
517,948;   80,607;  227,335;    0,000
518,532;   66,707;  229,006;    0,000
519,115;   62,707;  225,778;    0,000
519,699;   71,722;  233,506;    0,000
520,283;   69,279;  233,835;    0,000
520,867;   73,865;  232,863;    0,000
521,450;   65,062;  233,049;    0,000
522,034;   68,533;  232,449;    0,000
522,617;   62,975;  232,763;    0,000
523,201;   59,859;  234,878;    0,000
523,784;   63,816;  228,478;    0,000
524,368;   60,586;  228,521;    0,000
524,951;   56,816;  229,592;    0,000
525,535;   57,546;  230,492;    0,000
526,118;   56,676;  230,692;    0,000
526,702;   62,204;  228,549;    0,000
527,285;   65,061;  234,235;    0,000
527,868;   74,990;  235,863;    0,000
528,451;   92,963;  235,778;    0,000
529,035;   99,522;  235,535;    0,000
529,618;   88,334;  235,349;    0,000
530,201;   91,293;  235,935;    0,000
530,784;   88,651;  236,220;    0,000
531,367;  108,008;  237,549;    0,000
531,950;   96,524;  237,292;    0,000
532,533;   99,253;  241,720;    0,000
533,116;   94,312;  246,406;    0,000
533,699;   92,870;  243,663;    0,000
534,282;  100,342;  240,777;    0,000
534,865;   95,198;  240,935;    0,000
535,448;   74,968;  233,877;    0,000
536,030;   75,138;  234,178;    0,000
536,613;   56,796;  232,035;    0,000
537,196;   69,807;  226,078;    0,000
537,778;   69,177;  229,835;    0,000
538,361;   87,093;  232,420;    0,000
538,944;   91,966;  234,006;    0,000
539,526;  109,667;  241,906;    0,000
540,109;  124,083;  245,577;    0,000
540,691;  138,826;  246,777;    0,000
541,274;  135,358;  250,606;    0,000
541,856;  140,346;  251,163;    0,000
542,439;  123,060;  256,892;    0,000
543,021;  122,506;  255,963;    0,000
543,603;  111,278;  255,406;    0,000
544,186;  139,651;  253,463;    0,000
544,768;  133,609;  255,734;    0,000
545,350;  134,752;  256,677;    0,000
545,932;  138,051;  254,977;    0,000
546,515;  128,235;  252,463;    0,000
547,097;  124,606;  251,834;    0,000
547,679;  139,916;  251,249;    0,000
548,261;  108,441;  254,135;    0,000
548,843;  104,770;  251,320;    0,000
549,425;   88,540;  247,335;    0,000
550,007;   81,155;  247,949;    0,000
550,589;   74,525;  245,863;    0,000
551,171;   76,154;  245,906;    0,000
551,752;   51,388;  241,363;    0,000
552,334;   32,402;  235,992;    0,000
552,916;   32,816;  236,534;    0,000
553,498;   32,690;  235,834;    0,000
554,079;   39,773;  230,792;    0,000
554,661;   47,231;  229,620;    0,000
555,243;   43,774;  229,777;    0,000
555,824;   51,914;  229,820;    0,000
556,406;   71,074;  228,706;    0,000
556,987;   69,671;  224,263;    0,000
557,569;   64,526;  226,063;    0,000
558,150;   59,129;  232,249;    0,000
558,732;   53,801;  234,977;    0,000
559,313;   50,717;  234,477;    0,000
559,894;   34,290;  232,192;    0,000
560,476;   19,704;  232,906;    0,000
561,057;    8,476;  233,134;    0,000
561,638;   20,634;  233,577;    0,000
562,219;    5,662;  225,320;    0,000
562,801;    3,944;  221,820;    0,000
563,382;   -1,386;  222,463;    0,000
563,963;   13,587;  225,749;    0,000
564,544;    2,429;  225,077;    0,000
565,125;    9,672;  221,963;    0,000
565,706;    1,086;  223,892;    0,000
566,287;   12,472;  226,534;    0,000
566,868;   12,776;  225,206;    0,000
567,449;   26,932;  226,092;    0,000
568,030;   30,888;  223,720;    0,000
568,610;   38,231;  224,892;    0,000
569,191;   47,304;  228,234;    0,000
569,772;   54,476;  225,320;    0,000
570,353;   54,306;  222,906;    0,000
570,933;   79,837;  224,720;    0,000
571,514;   65,335;  220,634;    0,000
572,094;   63,906;  219,763;    0,000
572,675;   55,219;  216,063;    0,000
573,256;   34,761;  217,249;    0,000
573,836;   26,532;  214,777;    0,000
574,417;   41,086;  216,820;    0,000
574,997;   18,271;  220,763;    0,000
575,577;   21,757;  223,035;    0,000
576,158;   21,957;  227,606;    0,000
576,738;   48,899;  232,863;    0,000
577,318;   70,826;  233,806;    0,000
577,898;   92,940;  237,677;    0,000
578,479;   72,554;  239,520;    0,000
579,059;   66,382;  233,292;    0,000
579,639;   72,754;  234,849;    0,000
580,219;   65,470;  232,549;    0,000
580,799;   53,385;  227,677;    0,000
581,379;   33,888;  224,149;    0,000
581,959;    9,630;  222,834;    0,000
582,539;   16,475;  225,663;    0,000
583,119;   17,019;  227,049;    0,000
583,699;    5,904;  225,777;    0,000
584,279;   -2,708;  224,291;    0,000
584,859;   19,204;  229,434;    0,000
585,438;   17,246;  229,092;    0,000
586,018;   23,976;  228,649;    0,000
586,598;   34,175;  225,220;    0,000
587,177;   36,818;  224,249;    0,000
587,757;   42,686;  225,434;    0,000
588,337;   70,055;  226,892;    0,000
588,916;   51,069;  225,335;    0,000
589,496;   70,227;  224,563;    0,000
590,075;   75,526;  227,549;    0,000
590,654;   64,125;  227,477;    0,000
591,234;   59,854;  227,492;    0,000
591,813;   69,808;  224,549;    0,000
592,393;   55,780;  222,263;    0,000
592,972;   59,481;  220,320;    0,000
593,551;   47,421;  224,592;    0,000
594,130;   36,663;  223,392;    0,000
594,710;   51,232;  225,863;    0,000
595,289;   59,590;  226,021;    0,000
595,868;   52,581;  226,106;    0,000
596,447;   43,354;  229,377;    0,000
597,026;   40,754;  233,377;    0,000
597,605;   41,011;  233,077;    0,000
598,184;   38,739;  226,720;    0,000
598,763;   22,112;  226,363;    0,000
599,342;   14,857;  228,020;    0,000
599,920;   20,314;  227,935;    0,000
600,499;   21,570;  229,935;    0,000
601,078;   29,713;  226,963;    0,000
601,657;   36,401;  225,892;    0,000
602,236;   42,803;  231,506;    0,000
602,814;   38,645;  228,034;    0,000
603,393;   67,571;  227,320;    0,000
603,971;  142,455;  230,706;    0,000
604,550;  148,826;  228,949;    0,000
605,128;  138,481;  227,678;    0,000
605,707;  138,853;  232,063;    0,000
606,285;  149,980;  229,363;    0,000
606,864;  151,992;  235,678;    0,000
607,442;  129,893;  238,178;    0,000
608,020;   53,220;  243,206;    0,000
608,599;   52,304;  247,206;    0,000
609,177;   46,702;  259,549;    0,000
609,755;   38,571;  259,506;    0,000
610,333;   15,873;  263,435;    0,000
610,912;   12,459;  267,721;    0,000
611,490;    8,656;  268,678;    0,000
612,068;   -5,345;  265,064;    0,000
612,646;    4,267;  264,907;    0,000
613,224;   12,039;  258,864;    0,000
613,802;   19,295;  254,378;    0,000
614,380;   27,377;  252,764;    0,000
614,958;   31,006;  246,435;    0,000
615,535;   27,564;  242,107;    0,000
616,113;   35,065;  239,492;    0,000
616,691;   20,037;  234,492;    0,000
617,269;    5,795;  229,807;    0,000
617,846;   22,208;  231,592;    0,000
618,424;   26,324;  228,307;    0,000
619,002;   27,822;  227,735;    0,000
619,579;   31,663;  228,635;    0,000
620,157;   66,477;  230,607;    0,000
620,734;   91,044;  233,793;    0,000
621,312;   89,145;  235,050;    0,000
621,889;   76,903;  233,207;    0,000
622,467;   79,619;  235,935;    0,000
623,044;   79,261;  237,493;    0,000
623,621;   69,589;  238,264;    0,000
624,198;   40,577;  236,035;    0,000
624,776;   18,162;  232,492;    0,000
625,353;   25,875;  231,193;    0,000
625,930;   14,302;  232,050;    0,000
626,507;    3,786;  232,178;    0,000
627,084;   14,714;  229,836;    0,000
627,661;   15,970;  226,978;    0,000
628,238;   12,126;  227,193;    0,000
628,815;    8,712;  227,364;    0,000
629,392;    4,254;  226,864;    0,000
629,969;   26,195;  229,936;    0,000
630,546;   34,995;  230,907;    0,000
631,123;   18,052;  233,536;    0,000
631,700;   36,192;  235,021;    0,000
632,276;   41,420;  233,564;    0,000
632,853;   38,921;  235,536;    0,000
633,430;   47,561;  236,522;    0,000
634,006;   20,816;  233,165;    0,000
634,583;   51,185;  232,979;    0,000
635,160;   60,985;  230,636;    0,000
635,736;   50,415;  230,479;    0,000
636,313;   52,811;  227,636;    0,000
636,889;   56,139;  226,365;    0,000
637,466;   65,053;  230,322;    0,000
638,042;   65,524;  231,679;    0,000
638,618;   38,339;  229,593;    0,000
639,194;   40,237;  226,265;    0,000
639,771;   33,680;  224,193;    0,000
640,347;   31,205;  231,536;    0,000
640,923;   31,877;  229,193;    0,000
641,499;   24,192;  225,650;    0,000
642,075;   29,164;  224,379;    0,000
642,651;   17,607;  224,979;    0,000
643,227;   17,650;  228,321;    0,000
643,803;   25,136;  232,336;    0,000
644,379;   18,994;  229,521;    0,000
644,955;   20,709;  229,036;    0,000
645,531;   27,809;  230,207;    0,000
646,107;   25,424;  231,221;    0,000
646,683;   30,282;  227,407;    0,000
647,259;   25,182;  226,507;    0,000
647,834;   31,254;  224,978;    0,000
648,410;   54,312;  222,407;    0,000
648,986;   75,312;  222,921;    0,000
649,561;   55,384;  224,221;    0,000
650,137;   64,699;  220,850;    0,000
650,712;   60,285;  222,107;    0,000
651,288;   57,886;  222,236;    0,000
651,863;   52,729;  223,893;    0,000
652,439;   34,844;  223,635;    0,000
653,014;   11,487;  225,121;    0,000
653,589;   14,145;  220,478;    0,000
654,165;   10,217;  221,807;    0,000
654,740;   26,617;  222,593;    0,000
655,315;   38,189;  220,650;    0,000
655,890;   40,004;  224,564;    0,000
656,465;   43,119;  222,878;    0,000
657,040;   31,991;  218,607;    0,000
657,616;   28,606;  215,378;    0,000
658,191;   23,535;  216,964;    0,000
658,766;   37,121;  218,935;    0,000
659,340;   22,321;  217,464;    0,000
659,915;   24,293;  214,678;    0,000
660,490;   24,237;  215,907;    0,000
661,065;   29,037;  218,321;    0,000
661,640;   24,309;  217,907;    0,000
662,215;   19,681;  216,335;    0,000
662,789;   -8,176;  216,935;    0,000
663,364;  -11,218;  218,078;    0,000
663,939;  -23,775;  213,135;    0,000
664,513;  -30,931;  215,878;    0,000
665,088;  -12,717;  213,878;    0,000
665,662;   -4,559;  218,521;    0,000
666,237;    5,399;  219,792;    0,000
666,811;    8,071;  215,949;    0,000
667,385;   19,371;  217,964;    0,000
667,960;   21,600;  217,635;    0,000
668,534;   16,543;  214,821;    0,000
669,108;    2,944;  215,835;    0,000
669,683;    4,330;  212,049;    0,000
670,257;   -4,041;  208,821;    0,000
670,831;  -10,140;  206,606;    0,000
671,405;  -19,111;  206,049;    0,000
671,979;  -14,725;  204,549;    0,000
672,553;   -4,024;  204,863;    0,000
673,127;    7,305;  205,463;    0,000
673,701;   -7,438;  203,578;    0,000
674,275;   -7,937;  202,778;    0,000
674,849;   -7,908;  205,663;    0,000
675,423;   -8,308;  202,792;    0,000
675,997;  -10,279;  204,120;    0,000
676,570;  -15,892;  204,692;    0,000
677,144;  -23,478;  203,692;    0,000
677,718;  -14,049;  208,406;    0,000
678,292;  -12,820;  210,792;    0,000
678,865;   -9,819;  210,035;    0,000
679,439;   13,239;  212,649;    0,000
680,012;   14,239;  213,135;    0,000
680,586;    4,740;  212,277;    0,000
681,159;   -9,331;  212,077;    0,000
681,733;   -6,831;  212,735;    0,000
682,306;    4,898;  211,477;    0,000
682,879;   -0,473;  212,549;    0,000
683,453;  -15,715;  211,035;    0,000
684,026;   -6,015;  212,492;    0,000
684,599;    8,457;  212,163;    0,000
685,172;   23,429;  214,749;    0,000
685,745;   22,787;  214,649;    0,000
686,318;   28,459;  214,606;    0,000
686,891;   26,602;  212,977;    0,000
687,464;   17,188;  215,749;    0,000
688,037;    4,046;  215,877;    0,000
688,610;    3,947;  214,549;    0,000
689,183;    3,190;  213,749;    0,000
689,756;    5,148;  213,049;    0,000
690,329;   -8,338;  212,234;    0,000
690,902;   10,049;  214,563;    0,000
691,474;   25,920;  212,749;    0,000
692,047;   29,292;  209,991;    0,000
692,620;   25,893;  215,291;    0,000
693,192;   28,565;  216,191;    0,000
693,765;   23,865;  214,806;    0,000
694,337;   11,109;  213,548;    0,000
694,910;    2,166;  216,891;    0,000
695,482;  -11,905;  220,106;    0,000
696,055;   -8,418;  221,791;    0,000
696,627;   -8,847;  222,677;    0,000
697,199;  -23,689;  216,391;    0,000
697,772;  -26,103;  216,034;    0,000
698,344;  -11,216;  217,105;    0,000
698,916;  -20,987;  210,563;    0,000
699,488;   -5,415;  209,034;    0,000
700,060;  -10,586;  207,105;    0,000
700,633;  -18,286;  204,477;    0,000
701,205;  -15,271;  207,491;    0,000
701,777;   -6,785;  212,491;    0,000
702,349;  -11,856;  214,120;    0,000
702,920;    2,559;  216,891;    0,000
703,492;   -2,069;  214,562;    0,000
704,064;   -5,297;  215,391;    0,000
704,636;   15,218;  214,505;    0,000
705,208;   24,461;  212,420;    0,000
705,779;   20,347;  208,420;    0,000
706,351;   21,305;  206,962;    0,000
706,923;   24,462;  202,348;    0,000
707,494;   24,763;  202,820;    0,000
708,066;   58,049;  202,134;    0,000
708,638;   50,178;  201,048;    0,000
709,209;   45,036;  204,191;    0,000
709,780;   48,436;  202,805;    0,000
710,352;   40,108;  202,248;    0,000
710,923;   35,194;  209,634;    0,000
711,494;   26,895;  208,148;    0,000
712,066;    2,338;  211,062;    0,000
712,637;   -7,376;  209,634;    0,000
713,208;    0,496;  210,776;    0,000
713,779;    4,454;  211,776;    0,000
714,350;    7,255;  212,076;    0,000
714,922;    9,026;  208,934;    0,000
715,492;   12,884;  210,976;    0,000
716,064;    5,170;  208,076;    0,000
716,634;   14,128;  206,991;    0,000
717,205;   19,514;  210,791;    0,000
717,776;    5,015;  210,891;    0,000
718,347;   12,244;  214,062;    0,000
718,918;   15,916;  212,462;    0,000
719,489;   21,888;  212,076;    0,000
720,059;   20,274;  212,176;    0,000
720,630;   15,774;  214,291;    0,000
721,201;   14,175;  211,391;    0,000
721,771;   15,304;  213,290;    0,000
722,342;   10,047;  213,276;    0,000
722,912;   -0,467;  213,576;    0,000
723,483;   -2,295;  213,419;    0,000
724,053;    5,777;  217,576;    0,000
724,623;   -5,108;  217,248;    0,000
725,194;  -24,393;  217,033;    0,000
725,764;  -14,021;  218,348;    0,000
726,334;    1,808;  216,405;    0,000
726,904;   -0,820;  215,476;    0,000
727,475;    1,052;  220,133;    0,000
728,045;   -3,876;  216,376;    0,000
728,615;    3,210;  215,262;    0,000
729,185;   18,510;  216,119;    0,000
729,755;   14,525;  212,562;    0,000
730,325;    6,168;  211,647;    0,000
730,895;    2,783;  213,076;    0,000
731,465;   -3,588;  208,104;    0,000
732,034;    1,570;  209,533;    0,000
732,604;   -3,987;  213,033;    0,000
733,174;   -8,386;  210,919;    0,000
733,744;   -2,214;  210,119;    0,000
734,313;   -4,300;  213,833;    0,000
734,883;   -8,113;  211,304;    0,000
735,453;  -16,056;  214,276;    0,000
736,022;  -24,412;  212,647;    0,000
736,592;  -13,712;  214,076;    0,000
737,161;  -11,797;  217,247;    0,000
737,731;   23,775;  220,419;    0,000
738,300;   21,818;  218,747;    0,000
738,869;   29,076;  221,304;    0,000
739,439;   56,419;  215,819;    0,000
740,008;   71,377;  218,018;    0,000
740,577;   68,849;  215,518;    0,000
741,146;   61,192;  215,904;    0,000
741,715;   28,878;  212,618;    0,000
742,284;   27,307;  212,790;    0,000
742,853;   27,322;  212,933;    0,000
743,422;    8,094;  215,847;    0,000
743,991;    1,852;  212,004;    0,000
744,560;    5,938;  211,747;    0,000
745,129;    8,681;  208,161;    0,000
745,698;   -2,461;  210,304;    0,000
746,267;   -5,046;  210,475;    0,000
746,836;  -12,432;  208,575;    0,000
747,404;   14,726;  213,218;    0,000
747,973;   12,584;  218,418;    0,000
748,542;   14,170;  216,818;    0,000
749,110;   24,256;  219,090;    0,000
749,679;   23,285;  219,547;    0,000
750,247;   19,414;  215,718;    0,000
750,816;   29,158;  218,390;    0,000
751,384;   16,415;  212,518;    0,000
751,952;   17,587;  210,090;    0,000
752,521;    8,702;  210,961;    0,000
753,089;    0,488;  209,218;    0,000
753,657;    1,032;  208,032;    0,000
754,225;   10,275;  210,547;    0,000
754,794;   22,204;  210,218;    0,000
755,362;   23,504;  212,404;    0,000
755,930;   47,019;  216,261;    0,000
756,498;   57,977;  215,618;    0,000
757,066;   76,163;  215,989;    0,000
757,634;  108,649;  219,032;    0,000
758,202;  116,721;  221,104;    0,000
758,769;  132,565;  225,932;    0,000
759,337;  124,065;  228,218;    0,000
759,905;   98,651;  223,632;    0,000
760,473;   93,780;  226,118;    0,000
761,041;   68,495;  223,332;    0,000
761,608;   42,510;  221,304;    0,000
762,176;   45,882;  222,818;    0,000
762,743;   15,454;  217,846;    0,000
763,311;   26,711;  212,075;    0,000
763,878;   27,969;  212,746;    0,000
764,446;   20,898;  210,661;    0,000
765,013;   37,384;  212,918;    0,000
765,581;   37,228;  213,218;    0,000
766,148;   26,114;  209,975;    0,000
766,715;   35,500;  208,361;    0,000
767,282;   24,472;  213,032;    0,000
767,849;   29,230;  212,660;    0,000
768,417;   27,530;  213,232;    0,000
768,984;    9,359;  211,718;    0,000
769,551;   13,360;  210,046;    0,000
770,118;   13,303;  206,889;    0,000
770,685;    8,218;  205,575;    0,000
771,252;   -6,839;  200,889;    0,000
771,819;   -8,567;  201,703;    0,000
772,385;    0,005;  198,446;    0,000
772,952;    3,520;  197,046;    0,000
773,519;   -1,237;  197,117;    0,000
774,086;   -4,236;  197,932;    0,000
774,652;   -5,907;  196,932;    0,000
775,219;   -3,021;  198,746;    0,000
775,786;   -2,778;  199,489;    0,000
776,352;   -9,263;  201,303;    0,000
776,919;    2,438;  209,332;    0,000
777,485;   13,124;  212,532;    0,000
778,051;   19,910;  216,789;    0,000
778,618;   35,268;  218,746;    0,000
779,184;   46,597;  215,674;    0,000
779,750;   70,154;  215,846;    0,000
780,317;   80,912;  218,517;    0,000
780,883;   74,684;  214,874;    0,000
781,449;   62,456;  214,174;    0,000
782,015;   65,871;  215,617;    0,000
782,581;   53,914;  218,317;    0,000
783,147;   44,200;  221,803;    0,000
783,713;   15,144;  223,646;    0,000
784,279;   16,873;  227,474;    0,000
784,845;   28,816;  226,131;    0,000
785,411;   34,788;  228,474;    0,000
785,977;   27,703;  223,503;    0,000
786,542;   29,732;  224,231;    0,000
787,108;   36,575;  225,088;    0,000
787,674;   40,304;  223,146;    0,000
788,239;   39,805;  221,131;    0,000
788,805;   31,134;  222,660;    0,000
789,371;   30,177;  222,760;    0,000
789,936;   32,735;  221,217;    0,000
790,501;   34,549;  221,631;    0,000
791,067;   29,293;  221,617;    0,000
791,632;   28,479;  218,945;    0,000
792,198;   30,165;  219,488;    0,000
792,763;   28,194;  217,431;    0,000
793,328;   36,152;  214,231;    0,000
793,893;   38,967;  215,360;    0,000
794,458;   28,767;  211,674;    0,000
795,024;   29,182;  211,045;    0,000
795,589;   35,497;  211,545;    0,000
796,154;   35,854;  208,717;    0,000
796,719;   52,569;  208,645;    0,000
797,284;   53,027;  210,217;    0,000
797,848;   61,199;  209,745;    0,000
798,413;   82,756;  214,088;    0,000
798,978;   92,500;  217,388;    0,000
799,543;   81,629;  217,588;    0,000
800,108;   81,415;  219,531;    0,000
800,672;   71,401;  221,131;    0,000
801,237;   84,830;  219,088;    0,000
801,801;   88,516;  224,417;    0,000
802,366;   89,603;  221,888;    0,000
802,930;   87,517;  218,831;    0,000
803,495;   95,647;  224,145;    0,000
804,059;   93,133;  222,874;    0,000
804,624;   93,119;  221,659;    0,000
805,188;   77,777;  223,702;    0,000
805,752;  103,034;  221,974;    0,000
806,317;   93,992;  221,788;    0,000
806,881;   91,764;  223,131;    0,000
807,445;   96,650;  216,816;    0,000
808,009;  100,008;  220,302;    0,000
808,573;  102,622;  221,559;    0,000
809,137;  103,437;  221,402;    0,000
809,701;   66,152;  221,616;    0,000
810,265;   73,310;  220,688;    0,000
810,829;   71,696;  216,388;    0,000
811,393;   68,011;  217,116;    0,000
811,956;   59,540;  213,416;    0,000
812,520;   57,597;  212,188;    0,000
813,084;   55,098;  208,659;    0,000
813,647;   58,398;  205,902;    0,000
814,211;   59,356;  206,116;    0,000
814,775;   57,199;  207,559;    0,000
815,338;   61,457;  209,459;    0,000
815,902;   70,986;  209,330;    0,000
816,465;   73,644;  210,245;    0,000
817,029;   84,516;  213,345;    0,000
817,592;   85,387;  214,130;    0,000
818,155;   75,874;  219,102;    0,000
818,718;   86,703;  221,730;    0,000
819,282;   97,389;  221,345;    0,000
819,845;  106,789;  224,187;    0,000
820,408;   98,333;  225,659;    0,000
820,971;   86,976;  226,116;    0,000
821,534;   97,220;  230,387;    0,000
822,097;  103,234;  227,145;    0,000
822,660;  100,178;  228,587;    0,000
823,223;   94,921;  227,216;    0,000
823,786;   94,064;  225,959;    0,000
824,349;  100,065;  224,387;    0,000
824,911;  109,165;  219,687;    0,000
825,474;  101,694;  217,430;    0,000
826,037;  106,152;  219,573;    0,000
826,599;  119,424;  221,673;    0,000
827,162;  113,596;  222,673;    0,000
827,724;  103,754;  220,873;    0,000
828,287;  104,097;  223,359;    0,000
828,849;   95,397;  225,773;    0,000
829,412;   91,869;  225,916;    0,000
829,974;   86,841;  226,630;    0,000
830,536;   73,899;  221,630;    0,000
831,099;   77,028;  219,930;    0,000
831,661;  104,614;  222,501;    0,000
832,223;  101,015;  220,516;    0,000
832,785;   99,701;  218,044;    0,000
833,347;  116,316;  216,258;    0,000
833,909;  119,645;  213,658;    0,000
834,471;  131,688;  218,544;    0,000
835,033;  122,560;  220,444;    0,000
835,595;   90,918;  222,887;    0,000
836,157;  100,761;  224,758;    0,000
836,719;  102,933;  226,344;    0,000
837,281;   83,005;  226,244;    0,000
837,842;   87,334;  230,130;    0,000
838,404;   86,677;  227,615;    0,000
838,966;   94,392;  225,501;    0,000
839,527;  100,378;  217,387;    0,000
840,089;  100,050;  212,530;    0,000
840,650;  105,379;  213,287;    0,000
841,212;  127,023;  212,330;    0,000
841,773;  123,252;  207,844;    0,000
842,335;  117,109;  204,958;    0,000
842,896;  126,067;  205,144;    0,000
843,457;  125,182;  208,101;    0,000
844,018;  118,568;  212,244;    0,000
844,580;  112,140;  213,601;    0,000
845,141;  106,355;  212,401;    0,000
845,702;  100,984;  211,844;    0,000
846,263;  104,256;  212,315;    0,000
846,824;   96,299;  211,787;    0,000
847,385;   98,585;  211,958;    0,000
847,946;  106,014;  208,801;    0,000
848,507;  119,415;  210,215;    0,000
849,068;  119,601;  207,958;    0,000
849,628;  116,173;  203,158;    0,000
850,189;  115,659;  199,515;    0,000
850,750;  114,002;  201,586;    0,000
851,310;  127,589;  200,058;    0,000
851,871;  126,103;  200,001;    0,000
852,432;  119,347;  195,144;    0,000
852,992;  114,704;  201,329;    0,000
853,552;  118,219;  202,686;    0,000
854,113;  118,320;  206,858;    0,000
854,673;  120,563;  204,643;    0,000
855,234;  112,964;  204,786;    0,000
855,794;  124,535;  210,686;    0,000
856,354;  123,379;  210,286;    0,000
856,914;  122,708;  207,915;    0,000
857,474;  127,408;  209,786;    0,000
858,034;  141,223;  209,858;    0,000
858,595;  142,466;  213,458;    0,000
859,155;  136,210;  213,015;    0,000
859,714;  129,325;  207,800;    0,000
860,274;  143,368;  210,115;    0,000
860,834;  158,583;  208,658;    0,000
861,394;  155,598;  209,858;    0,000
861,954;  143,198;  210,472;    0,000
862,514;  158,627;  209,243;    0,000
863,073;  165,299;  212,086;    0,000
863,633;  156,628;  210,843;    0,000
864,192;  142,086;  208,229;    0,000
864,752;  131,129;  206,757;    0,000
865,311;  148,730;  205,300;    0,000
865,871;  153,273;  201,572;    0,000
866,430;  134,902;  200,000;    0,000
866,990;  129,674;  197,857;    0,000
867,549;  141,589;  196,529;    0,000
868,108;  147,632;  198,657;    0,000
868,667;  156,975;  201,500;    0,000
869,227;  167,076;  203,014;    0,000
869,786;  160,062;  205,643;    0,000
870,345;  175,577;  204,572;    0,000
870,904;  206,063;  199,229;    0,000
871,463;  204,306;  200,000;    0,000
872,022;  208,578;  201,257;    0,000
872,581;  209,579;  198,114;    0,000
873,140;  202,422;  194,157;    0,000
873,698;  208,637;  191,771;    0,000
874,257;  202,052;  193,129;    0,000
874,816;  173,809;  194,957;    0,000
875,374;  174,009;  193,657;    0,000
875,933;  175,880;  190,514;    0,000
876,492;  173,938;  194,557;    0,000
877,050;  161,595;  194,471;    0,000
877,609;  173,952;  195,200;    0,000
878,167;  164,266;  191,029;    0,000
878,725;  167,195;  194,157;    0,000
879,284;  165,252;  199,443;    0,000
879,842;  160,738;  195,786;    0,000
880,400;  150,352;  194,943;    0,000
880,958;  159,580;  195,043;    0,000
881,517;  162,652;  196,829;    0,000
882,075;  170,538;  200,986;    0,000
882,633;  179,938;  198,929;    0,000
883,191;  181,637;  196,043;    0,000
883,749;  210,095;  199,757;    0,000
884,307;  211,966;  201,371;    0,000
884,865;  218,195;  203,943;    0,000
885,422;  216,166;  202,986;    0,000
885,980;  223,023;  205,257;    0,000
886,538;  225,637;  206,586;    0,000
887,095;  233,180;  206,914;    0,000
887,653;  212,852;  204,743;    0,000
888,211;  243,538;  207,300;    0,000
888,768;  233,180;  208,000;    0,000
889,326;  233,495;  208,129;    0,000
889,883;  245,895;  205,600;    0,000
890,441;  245,552;  204,671;    0,000
890,998;  245,309;  208,143;    0,000
891,555;  245,180;  215,100;    0,000
892,112;  229,980;  210,614;    0,000
892,670;  246,095;  213,271;    0,000
893,227;  235,523;  210,914;    0,000
893,784;  235,880;  210,986;    0,000
894,341;  243,552;  215,586;    0,000
894,898;  267,752;  213,829;    0,000
895,455;  277,466;  212,043;    0,000
896,012;  271,609;  211,657;    0,000
896,569;  263,852;  209,643;    0,000
897,126;  276,952;  213,386;    0,000
897,682;  268,752;  213,429;    0,000
898,239;  279,280;  212,400;    0,000
898,796;  265,780;  212,557;    0,000
899,352;  274,123;  211,557;    0,000
899,909;  283,480;  213,743;    0,000
900,466;  301,523;  214,857;    0,000
901,022;  304,823;  216,971;    0,000
901,579;  310,809;  216,843;    0,000
902,135;  302,638;  212,614;    0,000
902,691;  302,166;  213,471;    0,000
903,248;  297,666;  212,471;    0,000
903,804;  294,680;  209,729;    0,000
904,360;  279,023;  209,886;    0,000
904,916;  368,209;  207,929;    0,000
905,472;  365,052;  210,529;    0,000
906,028;  367,495;  212,971;    0,000
906,584;  370,509;  210,543;    0,000
907,140;  367,480;  210,457;    0,000
907,696;  364,409;  210,314;    0,000
908,252;  379,280;  208,843;    0,000
908,808;  319,580;  207,071;    0,000
909,364;  324,623;  206,514;    0,000
909,920;  324,680;  207,514;    0,000
910,475;  330,966;  207,671;    0,000
911,031;  343,966;  208,000;    0,000
911,587;  362,452;  206,443;    0,000
912,142;  382,538;  206,114;    0,000
912,698;  358,652;  206,100;    0,000
913,253;  372,209;  201,814;    0,000
913,808;  361,609;  201,729;    0,000
914,364;  361,280;  199,386;    0,000
914,919;  350,852;  202,471;    0,000
915,474;  361,023;  207,086;    0,000
916,030;  331,380;  205,857;    0,000
916,585;  355,852;  207,214;    0,000
917,140;  345,966;  208,057;    0,000
917,695;  351,395;  205,657;    0,000
918,250;  375,809;  206,371;    0,000
918,805;  376,495;  201,357;    0,000
919,360;  364,509;  198,986;    0,000
919,915;  370,366;  200,171;    0,000
920,469;  355,652;  200,386;    0,000
921,024;  370,295;  199,814;    0,000
921,579;  379,237;  201,971;    0,000
922,134;  357,623;  201,729;    0,000
922,688;  365,952;  205,657;    0,000
923,243;  371,737;  209,543;    0,000
923,797;  367,052;  208,443;    0,000
924,352;  355,138;  208,786;    0,000
924,906;  344,423;  210,929;    0,000
925,461;  350,666;  210,800;    0,000
926,015;  349,323;  208,329;    0,000
926,569;  346,395;  204,857;    0,000
927,124;  350,752;  204,686;    0,000
927,678;  375,580;  207,986;    0,000
928,232;  383,923;  208,729;    0,000
928,786;  384,395;  209,143;    0,000
929,340;  380,366;  211,914;    0,000
929,894;  394,466;  212,543;    0,000
930,448;  403,237;  214,843;    0,000
931,002;  392,466;  214,729;    0,000
931,556;  370,509;  212,443;    0,000
932,110;  368,123;  208,286;    0,000
932,663;  376,295;  208,514;    0,000
933,217;  387,780;  205,686;    0,000
933,771;  391,409;  208,343;    0,000
934,324;  407,309;  206,286;    0,000
934,878;  417,680;  201,157;    0,000
935,432;  420,066;  202,514;    0,000
935,985;  441,480;  204,286;    0,000
936,538;  453,837;  204,214;    0,000
937,092;  448,680;  202,757;    0,000
937,645;  454,066;  201,729;    0,000
938,198;  432,980;  205,800;    0,000
938,752;  442,366;  209,871;    0,000
939,305;  448,309;  212,057;    0,000
939,858;  429,195;  212,114;    0,000
940,411;  438,923;  214,443;    0,000
940,964;  442,380;  216,486;    0,000
941,517;  441,266;  218,729;    0,000
942,070;  441,709;  218,443;    0,000
942,623;  437,837;  217,186;    0,000
943,176;  437,952;  215,529;    0,000
943,728;  443,352;  215,586;    0,000
944,281;  434,509;  210,157;    0,000
944,834;  444,423;  210,443;    0,000
945,387;  430,523;  207,214;    0,000
945,939;  457,995;  205,114;    0,000
946,492;  463,438;  205,143;    0,000
947,044;  468,923;  203,757;    0,000
947,597;  483,166;  203,514;    0,000
948,149;  479,366;  205,286;    0,000
948,701;  464,295;  203,514;    0,000
949,254;  469,237;  207,557;    0,000
949,806;  465,980;  207,900;    0,000
950,358;  465,109;  208,786;    0,000
950,910;  472,138;  207,943;    0,000
951,462;  455,923;  206,043;    0,000
952,014;  458,009;  208,657;    0,000
952,566;  465,295;  207,143;    0,000
953,118;  468,695;  206,486;    0,000
953,670;  450,580;  205,100;    0,000
954,222;  454,009;  202,457;    0,000
954,774;  449,595;  203,357;    0,000
955,326;  455,023;  204,314;    0,000
955,877;  462,266;  203,571;    0,000
956,429;  460,237;  207,714;    0,000
956,981;  452,438;  207,343;    0,000
957,532;  459,509;  207,314;    0,000
958,084;  459,680;  207,986;    0,000
958,635;  458,552;  209,729;    0,000
959,187;  473,709;  211,943;    0,000
959,738;  483,223;  211,371;    0,000
960,289;  501,066;  211,629;    0,000
960,840;  526,138;  208,471;    0,000
961,392;  540,323;  212,014;    0,000
961,943;  537,323;  210,700;    0,000
962,494;  540,552;  208,157;    0,000
963,045;  528,466;  205,386;    0,000
963,596;  525,109;  207,114;    0,000
964,147;  534,209;  204,643;    0,000
964,698;  529,237;  206,829;    0,000
965,249;  524,023;  205,843;    0,000
965,800;  522,709;  205,357;    0,000
966,350;  535,366;  207,714;    0,000
966,901;  539,666;  205,414;    0,000
967,452;  542,209;  201,671;    0,000
968,002;  536,938;  203,143;    0,000
968,553;  525,123;  203,243;    0,000
969,103;  524,666;  199,829;    0,000
969,654;  518,923;  200,971;    0,000
970,204;  522,866;  196,071;    0,000
970,755;  568,338;  201,929;    0,000
971,305;  548,195;  198,600;    0,000
971,855;  559,452;  199,529;    0,000
972,405;  572,938;  200,386;    0,000
972,956;  574,652;  202,300;    0,000
973,506;  574,352;  200,243;    0,000
974,056;  576,338;  205,757;    0,000
974,606;  556,466;  204,800;    0,000
975,156;  581,138;  212,000;    0,000
975,706;  571,009;  210,557;    0,000
976,255;  581,252;  208,914;    0,000
976,805;  591,023;  203,643;    0,000
977,355;  596,995;  202,271;    0,000
977,905;  602,609;  198,400;    0,000
978,454;  570,580;  193,571;    0,000
979,004;  565,323;  190,200;    0,000
979,554;  549,466;  183,971;    0,000
980,103;  533,995;  183,571;    0,000
980,653;  518,366;  188,286;    0,000
981,202;  528,395;  191,814;    0,000
981,751;  517,895;  192,229;    0,000
982,301;  541,823;  193,257;    0,000
982,850;  545,695;  195,100;    0,000
983,399;  558,809;  199,629;    0,000
983,948;  565,866;  197,286;    0,000
984,497;  563,709;  196,686;    0,000
985,047;  568,052;  197,186;    0,000
985,596;  551,009;  192,486;    0,000
986,144;  539,223;  192,314;    0,000
986,693;  528,295;  189,443;    0,000
987,242;  529,266;  188,129;    0,000
987,791;  520,095;  188,286;    0,000
988,340;  523,237;  186,943;    0,000
988,888;  527,823;  185,471;    0,000
989,437;  543,895;  189,371;    0,000
989,986;  559,209;  188,657;    0,000
990,534;  570,352;  191,471;    0,000
991,083;  563,866;  190,871;    0,000
991,631;  585,366;  196,000;    0,000
992,180;  583,237;  195,171;    0,000
992,728;  581,095;  197,200;    0,000
993,276;  587,438;  198,900;    0,000
993,825;  597,180;  202,886;    0,000
994,373;  586,880;  202,086;    0,000
994,921;  595,409;  204,029;    0,000
995,469;  587,280;  200,571;    0,000
996,017;  605,266;  203,457;    0,000
996,565;  605,095;  200,757;    0,000
997,113;  594,780;  197,871;    0,000
997,661;  585,795;  199,429;    0,000
998,209;  588,766;  197,343;    0,000
998,757;  585,295;  198,371;    0,000
999,304;  584,652;  203,157;    0,000
999,852;  577,152;  201,429;    0,000
1000,400;  568,537;  203,300;    0,000
1000,947;  583,752;  205,343;    0,000
1001,495;  569,138;  203,743;    0,000
1002,042;  565,880;  206,457;    0,000
1002,590;  575,523;  206,086;    0,000
1003,137;  576,166;  204,214;    0,000
1003,684;  577,152;  208,486;    0,000
1004,232;  580,652;  208,729;    0,000
1004,779;  566,595;  208,643;    0,000
1005,326;  575,180;  206,757;    0,000
1005,873;  569,537;  207,143;    0,000
1006,420;  571,638;  211,114;    0,000
1006,967;  572,509;  206,957;    0,000
1007,514;  580,638;  203,314;    0,000
1008,061;  578,695;  201,657;    0,000
1008,608;  574,595;  203,329;    0,000
1009,155;  596,409;  207,614;    0,000
1009,702;  603,980;  205,000;    0,000
1010,248;  591,523;  202,100;    0,000
1010,795;  588,709;  204,300;    0,000
1011,342;  583,938;  208,243;    0,000
1011,888;  605,295;  210,971;    0,000
1012,435;  607,409;  210,100;    0,000
1012,981;  582,666;  208,757;    0,000
1013,528;  576,780;  211,629;    0,000
1014,074;  594,680;  213,329;    0,000
1014,620;  609,166;  216,514;    0,000
1015,166;  607,052;  216,100;    0,000
1015,713;  587,638;  215,086;    0,000
1016,259;  586,838;  214,414;    0,000
1016,805;  581,280;  212,086;    0,000
1017,351;  594,709;  210,986;    0,000
1017,897;  566,537;  207,929;    0,000
1018,443;  535,838;  203,700;    0,000
1018,989;  536,552;  201,800;    0,000
1019,535;  549,523;  202,029;    0,000
1020,080;  545,452;  201,886;    0,000
1020,626;  558,452;  204,200;    0,000
1021,172;  563,595;  203,843;    0,000
1021,717;  565,338;  202,200;    0,000
1022,263;  583,266;  206,886;    0,000
1022,809;  582,123;  206,486;    0,000
1023,354;  558,752;  209,643;    0,000
1023,900;  554,737;  205,900;    0,000
1024,445;  533,323;  202,114;    0,000
1024,990;  511,352;  201,914;    0,000
1025,536;  522,566;  203,629;    0,000
1026,081;  514,695;  198,914;    0,000
1026,626;  501,066;  197,157;    0,000
1027,171;  498,895;  194,043;    0,000
1027,716;  516,323;  198,900;    0,000
1028,261;  522,009;  198,414;    0,000
1028,806;  520,566;  199,357;    0,000
1029,351;  512,780;  199,557;    0,000
1029,896;  515,523;  204,486;    0,000
1030,441;  512,237;  204,186;    0,000
1030,985;  520,580;  202,729;    0,000
1031,530;  501,038;  199,843;    0,000
1032,075;  514,438;  199,386;    0,000
1032,619;  528,295;  202,371;    0,000
1033,164;  541,095;  199,014;    0,000
1033,708;  548,823;  196,229;    0,000
1034,253;  545,695;  195,171;    0,000
1034,797;  544,866;  196,900;    0,000
1035,341;  553,923;  196,300;    0,000
1035,886;  540,380;  198,214;    0,000
1036,430;  532,252;  194,886;    0,000
1036,974;  512,252;  200,843;    0,000
1037,518;  479,566;  199,957;    0,000
1038,062;  480,652;  200,200;    0,000
1038,606;  466,566;  198,786;    0,000
1039,150;  472,066;  198,700;    0,000
1039,694;  463,852;  199,443;    0,000
1040,238;  448,223;  197,314;    0,000
1040,782;  471,152;  193,514;    0,000
1041,326;  482,280;  195,229;    0,000
1041,869;  486,852;  200,443;    0,000
1042,413;  487,609;  202,686;    0,000
1042,957;  480,166;  206,229;    0,000
1043,500;  485,538;  205,186;    0,000
1044,044;  496,938;  206,314;    0,000
1044,587;  469,366;  205,671;    0,000
1045,130;  474,452;  207,600;    0,000
1045,674;  480,266;  203,986;    0,000
1046,217;  493,766;  207,171;    0,000
1046,760;  486,509;  205,400;    0,000
1047,304;  482,809;  203,957;    0,000
1047,847;  474,852;  206,157;    0,000
1048,390;  485,952;  208,329;    0,000
1048,933;  481,837;  205,200;    0,000
1049,476;  455,466;  208,371;    0,000
1050,019;  427,252;  206,486;    0,000
1050,562;  423,080;  206,114;    0,000
1051,104;  401,666;  209,886;    0,000
1051,647;  394,195;  213,986;    0,000
1052,190;  379,766;  215,529;    0,000
1052,732;  367,195;  214,014;    0,000
1053,275;  374,509;  208,643;    0,000
1053,818;  381,195;  204,271;    0,000
1054,360;  391,709;  205,571;    0,000
1054,902;  401,652;  205,771;    0,000
1055,445;  400,480;  198,400;    0,000
1055,987;  398,123;  200,657;    0,000
1056,530;  402,309;  203,357;    0,000
1057,072;  400,023;  206,900;    0,000
1057,614;  401,638;  204,957;    0,000
1058,156;  384,652;  207,871;    0,000
1058,698;  382,595;  205,343;    0,000
1059,240;  402,480;  209,257;    0,000
1059,782;  403,166;  204,786;    0,000
1060,324;  399,495;  202,243;    0,000
1060,866;  400,652;  204,014;    0,000
1061,408;  395,980;  209,786;    0,000
1061,949;  401,438;  208,729;    0,000
1062,491;  404,123;  209,857;    0,000
1063,033;  391,195;  209,486;    0,000
1063,574;  379,509;  209,071;    0,000
1064,116;  380,652;  208,843;    0,000
1064,657;  366,380;  207,271;    0,000
1065,199;  378,795;  207,314;    0,000
1065,740;  375,080;  206,343;    0,000
1066,281;  354,309;  208,214;    0,000
1066,823;  347,566;  203,557;    0,000
1067,364;  347,052;  209,071;    0,000
1067,905;  332,723;  212,771;    0,000
1068,446;  335,480;  211,871;    0,000
1068,987;  330,909;  209,557;    0,000
1069,528;  320,823;  210,071;    0,000
1070,069;  350,423;  213,629;    0,000
1070,610;  343,223;  215,843;    0,000
1071,151;  353,066;  210,871;    0,000
1071,692;  362,052;  209,571;    0,000
1072,232;  351,895;  208,329;    0,000
1072,773;  335,995;  209,271;    0,000
1073,314;  357,380;  207,229;    0,000
1073,854;  331,080;  203,714;    0,000
1074,395;  324,580;  204,443;    0,000
1074,935;  308,323;  205,757;    0,000
1075,476;  289,152;  204,171;    0,000
1076,016;  302,809;  205,471;    0,000
1076,556;  308,552;  205,529;    0,000
1077,097;  296,309;  207,929;    0,000
1077,637;  291,109;  207,157;    0,000
1078,177;  292,638;  205,457;    0,000
1078,717;  332,623;  206,157;    0,000
1079,257;  344,852;  208,414;    0,000
1079,797;  356,066;  212,700;    0,000
1080,337;  349,366;  213,114;    0,000
1080,877;  324,737;  210,571;    0,000
1081,417;  327,552;  208,643;    0,000
1081,956;  328,023;  208,014;    0,000
1082,496;  278,737;  204,657;    0,000
1083,036;  271,580;  204,514;    0,000
1083,575;  258,680;  199,457;    0,000
1084,115;  247,695;  196,371;    0,000
1084,655;  268,352;  197,114;    0,000
1085,194;  313,780;  200,114;    0,000
1085,733;  312,152;  201,643;    0,000
1086,273;  334,523;  204,229;    0,000
1086,812;  347,452;  206,129;    0,000
1087,351;  341,952;  209,457;    0,000
1087,890;  340,538;  209,457;    0,000
1088,429;  328,252;  210,943;    0,000
1088,969;  296,209;  207,414;    0,000
1089,507;  295,380;  208,514;    0,000
1090,047;  269,395;  208,529;    0,000
1090,585;  254,823;  203,600;    0,000
1091,124;  252,509;  201,400;    0,000
1091,663;  251,595;  203,414;    0,000
1092,202;  282,852;  204,186;    0,000
1092,740;  263,852;  207,100;    0,000
1093,279;  258,509;  204,657;    0,000
1093,818;  274,880;  203,186;    0,000
1094,356;  273,680;  204,686;    0,000
1094,895;  289,223;  205,186;    0,000
1095,433;  288,280;  203,586;    0,000
1095,971;  259,152;  203,143;    0,000
1096,510;  259,395;  201,000;    0,000
1097,048;  271,723;  201,457;    0,000
1097,586;  279,595;  202,757;    0,000
1098,124;  279,023;  205,171;    0,000
1098,662;  263,809;  206,129;    0,000
1099,200;  258,195;  206,814;    0,000
1099,738;  244,238;  206,286;    0,000
1100,276;  253,280;  210,357;    0,000

