0,70A
Integration time [ms]:   1,000
Averaging Nr. [scans]: 10
Smoothing Nr. [pixels]: 3
Data measured with spectrometer [name]: 7516255SP
Wave   ;Sample   ;Dark     ;Reference
[nm]   ;[counts] ;[counts] ;[counts] 

177,229;  246,486;  248,380;    0,000
177,829;  244,021;  245,964;    0,000
178,430;  250,083;  248,373;    0,000
179,030;  243,069;  250,642;    0,000
179,630;  245,312;  253,151;    0,000
180,230;  240,606;  249,422;    0,000
180,830;  241,840;  253,310;    0,000
181,430;  238,544;  249,852;    0,000
182,030;  245,653;  255,348;    0,000
182,630;  242,486;  252,722;    0,000
183,230;  249,118;  256,133;    0,000
183,830;  245,720;  255,035;    0,000
184,430;  250,685;  260,918;    0,000
185,030;  253,001;  265,794;    0,000
185,630;  252,459;  273,281;    0,000
186,229;  249,582;  276,549;    0,000
186,829;  250,020;  284,113;    0,000
187,429;  244,686;  284,655;    0,000
188,029;  241,794;  293,060;    0,000
188,628;  242,025;  296,144;    0,000
189,228;  239,892;  298,286;    0,000
189,828;  233,110;  301,049;    0,000
190,428;  225,541;  304,825;    0,000
191,027;  218,094;  307,658;    0,000
191,627;  217,138;  310,938;    0,000
192,227;  213,944;  308,449;    0,000
192,826;  212,542;  309,456;    0,000
193,426;  213,170;  305,352;    0,000
194,025;  224,185;  304,269;    0,000
194,625;  229,503;  297,290;    0,000
195,224;  233,560;  291,007;    0,000
195,824;  232,986;  284,067;    0,000
196,423;  237,801;  284,210;    0,000
197,023;  229,774;  273,975;    0,000
197,622;  235,267;  277,388;    0,000
198,221;  229,212;  271,407;    0,000
198,821;  228,523;  270,071;    0,000
199,420;  230,276;  267,807;    0,000
200,019;  229,843;  265,581;    0,000
200,619;  232,707;  266,708;    0,000
201,218;  236,560;  269,307;    0,000
201,817;  231,206;  262,689;    0,000
202,416;  240,703;  269,320;    0,000
203,016;  239,450;  267,603;    0,000
203,615;  240,360;  269,316;    0,000
204,214;  238,525;  268,581;    0,000
204,813;  237,266;  269,417;    0,000
205,412;  239,512;  270,504;    0,000
206,011;  237,809;  271,061;    0,000
206,610;  226,978;  262,624;    0,000
207,209;  223,790;  260,034;    0,000
207,808;  224,369;  263,300;    0,000
208,407;  226,583;  265,099;    0,000
209,006;  223,128;  259,918;    0,000
209,605;  227,139;  263,852;    0,000
210,204;  226,087;  261,611;    0,000
210,803;  229,035;  263,763;    0,000
211,402;  232,229;  267,671;    0,000
212,001;  230,853;  265,171;    0,000
212,599;  232,975;  265,613;    0,000
213,198;  230,899;  264,736;    0,000
213,797;  225,598;  258,824;    0,000
214,396;  228,350;  262,628;    0,000
214,994;  226,267;  259,891;    0,000
215,593;  228,191;  258,874;    0,000
216,192;  226,031;  256,996;    0,000
216,790;  226,383;  258,235;    0,000
217,389;  229,922;  262,211;    0,000
217,988;  232,924;  265,618;    0,000
218,586;  229,275;  261,907;    0,000
219,185;  227,766;  262,217;    0,000
219,783;  223,471;  261,125;    0,000
220,382;  224,533;  263,945;    0,000
220,980;  226,863;  265,514;    0,000
221,579;  228,322;  265,657;    0,000
222,177;  226,233;  265,160;    0,000
222,776;  227,329;  265,216;    0,000
223,374;  231,193;  267,622;    0,000
223,972;  235,845;  268,758;    0,000
224,571;  236,409;  266,607;    0,000
225,169;  235,013;  266,183;    0,000
225,767;  233,427;  263,128;    0,000
226,366;  233,615;  264,716;    0,000
226,964;  234,842;  265,381;    0,000
227,562;  236,077;  264,573;    0,000
228,160;  233,161;  266,307;    0,000
228,758;  230,545;  263,099;    0,000
229,356;  231,008;  264,018;    0,000
229,955;  229,848;  263,643;    0,000
230,553;  233,022;  262,812;    0,000
231,151;  228,395;  260,474;    0,000
231,749;  228,820;  261,002;    0,000
232,347;  230,757;  261,471;    0,000
232,945;  229,245;  263,359;    0,000
233,543;  228,987;  263,245;    0,000
234,141;  225,111;  259,740;    0,000
234,739;  225,892;  260,786;    0,000
235,337;  230,409;  266,127;    0,000
235,934;  230,299;  268,009;    0,000
236,532;  233,742;  269,234;    0,000
237,130;  236,548;  269,912;    0,000
237,728;  239,536;  271,060;    0,000
238,326;  245,105;  277,127;    0,000
238,923;  239,889;  273,391;    0,000
239,521;  238,920;  270,594;    0,000
240,119;  233,393;  264,347;    0,000
240,716;  233,068;  263,320;    0,000
241,314;  230,684;  260,868;    0,000
241,912;  222,643;  255,973;    0,000
242,509;  227,525;  260,687;    0,000
243,107;  230,687;  265,030;    0,000
243,704;  230,689;  263,643;    0,000
244,302;  238,444;  270,353;    0,000
244,899;  237,625;  268,025;    0,000
245,497;  244,068;  272,907;    0,000
246,094;  243,985;  270,101;    0,000
246,692;  240,568;  264,182;    0,000
247,289;  236,010;  258,082;    0,000
247,887;  240,136;  261,108;    0,000
248,484;  237,933;  261,014;    0,000
249,081;  231,795;  256,929;    0,000
249,679;  227,013;  254,140;    0,000
250,276;  230,514;  257,478;    0,000
250,873;  230,766;  257,489;    0,000
251,470;  237,678;  264,509;    0,000
252,067;  232,635;  257,864;    0,000
252,665;  229,666;  256,501;    0,000
253,262;  235,392;  261,268;    0,000
253,859;  239,122;  264,566;    0,000
254,456;  240,737;  266,818;    0,000
255,053;  236,830;  264,252;    0,000
255,650;  236,988;  264,688;    0,000
256,247;  239,372;  266,436;    0,000
256,844;  238,428;  262,412;    0,000
257,441;  241,607;  265,346;    0,000
258,038;  234,864;  256,555;    0,000
258,635;  239,389;  259,146;    0,000
259,232;  238,585;  258,136;    0,000
259,829;  236,933;  258,534;    0,000
260,426;  236,070;  260,226;    0,000
261,022;  238,583;  265,937;    0,000
261,619;  235,791;  263,246;    0,000
262,216;  239,018;  267,582;    0,000
262,813;  232,113;  263,416;    0,000
263,409;  236,256;  266,190;    0,000
264,006;  236,520;  263,910;    0,000
264,603;  240,186;  266,458;    0,000
265,199;  240,346;  266,212;    0,000
265,796;  238,314;  262,638;    0,000
266,393;  245,643;  270,051;    0,000
266,989;  246,159;  268,950;    0,000
267,586;  246,028;  269,445;    0,000
268,182;  246,589;  271,811;    0,000
268,779;  247,827;  271,297;    0,000
269,375;  252,030;  272,459;    0,000
269,971;  246,165;  269,812;    0,000
270,568;  243,332;  267,102;    0,000
271,164;  239,383;  265,667;    0,000
271,761;  240,870;  266,079;    0,000
272,357;  237,664;  262,751;    0,000
272,953;  234,536;  262,804;    0,000
273,550;  234,328;  263,553;    0,000
274,146;  240,687;  268,732;    0,000
274,742;  238,300;  267,040;    0,000
275,338;  239,398;  266,953;    0,000
275,934;  241,333;  269,701;    0,000
276,531;  240,724;  268,661;    0,000
277,127;  239,120;  266,833;    0,000
277,723;  234,431;  263,505;    0,000
278,319;  230,377;  260,610;    0,000
278,915;  237,280;  265,702;    0,000
279,511;  230,403;  261,135;    0,000
280,107;  230,375;  261,223;    0,000
280,703;  228,256;  261,557;    0,000
281,299;  228,580;  260,275;    0,000
281,895;  228,178;  260,898;    0,000
282,491;  228,478;  261,025;    0,000
283,086;  226,270;  260,856;    0,000
283,682;  232,631;  265,149;    0,000
284,278;  231,696;  263,061;    0,000
284,874;  230,433;  262,221;    0,000
285,470;  235,754;  268,220;    0,000
286,065;  236,263;  268,543;    0,000
286,661;  239,555;  271,852;    0,000
287,257;  234,269;  266,128;    0,000
287,852;  235,290;  269,122;    0,000
288,448;  232,704;  268,736;    0,000
289,044;  232,841;  267,845;    0,000
289,639;  228,796;  264,108;    0,000
290,235;  224,238;  261,245;    0,000
290,830;  222,756;  258,763;    0,000
291,426;  220,505;  256,138;    0,000
292,021;  220,323;  256,966;    0,000
292,617;  215,940;  252,863;    0,000
293,212;  216,640;  253,676;    0,000
293,807;  215,971;  251,590;    0,000
294,403;  222,088;  257,176;    0,000
294,998;  223,243;  259,197;    0,000
295,593;  221,608;  259,471;    0,000
296,189;  222,071;  257,496;    0,000
296,784;  224,150;  257,071;    0,000
297,379;  225,464;  258,813;    0,000
297,974;  225,653;  260,428;    0,000
298,570;  217,957;  252,022;    0,000
299,165;  214,686;  250,170;    0,000
299,760;  216,306;  250,522;    0,000
300,355;  217,615;  254,216;    0,000
300,950;  220,090;  256,042;    0,000
301,545;  221,337;  256,334;    0,000
302,140;  221,367;  255,723;    0,000
302,735;  223,740;  257,293;    0,000
303,330;  229,171;  259,781;    0,000
303,925;  228,889;  258,770;    0,000
304,520;  227,875;  258,857;    0,000
305,115;  226,899;  260,265;    0,000
305,709;  224,661;  258,280;    0,000
306,304;  222,195;  256,457;    0,000
306,899;  221,046;  255,726;    0,000
307,494;  221,758;  257,195;    0,000
308,089;  219,889;  253,993;    0,000
308,683;  223,032;  252,905;    0,000
309,278;  219,853;  249,781;    0,000
309,873;  225,498;  253,016;    0,000
310,467;  231,981;  257,138;    0,000
311,062;  237,220;  259,829;    0,000
311,656;  234,976;  256,316;    0,000
312,251;  241,271;  262,499;    0,000
312,846;  239,273;  260,375;    0,000
313,440;  244,163;  265,566;    0,000
314,035;  240,937;  262,472;    0,000
314,629;  238,534;  264,036;    0,000
315,223;  239,429;  266,656;    0,000
315,818;  240,582;  268,905;    0,000
316,412;  236,745;  265,768;    0,000
317,006;  236,564;  266,867;    0,000
317,601;  232,198;  264,141;    0,000
318,195;  234,192;  268,583;    0,000
318,789;  233,546;  267,468;    0,000
319,384;  233,263;  267,626;    0,000
319,978;  228,640;  264,087;    0,000
320,572;  233,570;  266,422;    0,000
321,166;  237,396;  270,525;    0,000
321,760;  238,057;  271,064;    0,000
322,354;  237,125;  268,470;    0,000
322,948;  236,277;  266,232;    0,000
323,542;  233,291;  262,171;    0,000
324,136;  235,248;  263,390;    0,000
324,730;  234,000;  263,056;    0,000
325,324;  230,287;  258,546;    0,000
325,918;  232,034;  257,352;    0,000
326,512;  233,972;  257,260;    0,000
327,106;  236,687;  260,163;    0,000
327,700;  234,351;  258,710;    0,000
328,294;  237,752;  262,356;    0,000
328,887;  236,348;  260,123;    0,000
329,481;  238,192;  260,701;    0,000
330,075;  236,591;  260,312;    0,000
330,669;  232,517;  256,986;    0,000
331,262;  227,854;  252,608;    0,000
331,856;  230,387;  252,427;    0,000
332,449;  227,537;  249,961;    0,000
333,043;  230,597;  253,043;    0,000
333,637;  226,844;  248,985;    0,000
334,230;  228,586;  247,576;    0,000
334,824;  231,827;  248,912;    0,000
335,417;  233,948;  249,551;    0,000
336,011;  232,925;  249,473;    0,000
336,604;  227,663;  243,618;    0,000
337,197;  224,531;  239,138;    0,000
337,791;  225,457;  241,150;    0,000
338,384;  220,323;  240,818;    0,000
338,977;  218,454;  239,483;    0,000
339,571;  212,618;  236,886;    0,000
340,164;  213,055;  235,665;    0,000
340,757;  219,425;  242,840;    0,000
341,350;  218,580;  242,880;    0,000
341,943;  215,100;  240,909;    0,000
342,537;  212,840;  238,109;    0,000
343,130;  211,468;  235,497;    0,000
343,723;  216,285;  237,841;    0,000
344,316;  213,611;  235,469;    0,000
344,909;  214,420;  233,252;    0,000
345,502;  218,494;  237,004;    0,000
346,095;  221,778;  238,174;    0,000
346,688;  228,616;  242,384;    0,000
347,281;  231,668;  241,916;    0,000
347,874;  232,146;  241,894;    0,000
348,466;  239,509;  249,562;    0,000
349,059;  240,111;  251,577;    0,000
349,652;  237,972;  246,126;    0,000
350,245;  238,075;  245,978;    0,000
350,838;  236,498;  244,679;    0,000
351,430;  238,670;  248,030;    0,000
352,023;  234,228;  244,793;    0,000
352,616;  230,436;  239,239;    0,000
353,208;  230,207;  239,597;    0,000
353,801;  233,477;  244,491;    0,000
354,393;  236,753;  245,289;    0,000
354,986;  236,483;  246,962;    0,000
355,578;  234,142;  246,807;    0,000
356,171;  239,086;  251,427;    0,000
356,763;  247,352;  255,434;    0,000
357,356;  246,764;  253,357;    0,000
357,948;  244,865;  250,493;    0,000
358,541;  247,504;  251,416;    0,000
359,133;  248,263;  251,927;    0,000
359,725;  250,133;  249,585;    0,000
360,318;  247,687;  246,151;    0,000
360,910;  245,268;  244,801;    0,000
361,502;  246,629;  244,266;    0,000
362,094;  245,313;  244,408;    0,000
362,686;  240,040;  239,185;    0,000
363,279;  237,389;  236,351;    0,000
363,871;  243,510;  241,677;    0,000
364,463;  245,603;  243,320;    0,000
365,055;  244,012;  241,634;    0,000
365,647;  241,869;  242,106;    0,000
366,239;  242,960;  240,313;    0,000
366,831;  245,824;  244,023;    0,000
367,423;  250,325;  246,456;    0,000
368,015;  244,333;  243,213;    0,000
368,607;  246,571;  243,993;    0,000
369,198;  250,172;  246,042;    0,000
369,790;  250,586;  244,907;    0,000
370,382;  250,916;  245,851;    0,000
370,974;  250,509;  243,277;    0,000
371,565;  250,536;  242,518;    0,000
372,157;  250,917;  240,254;    0,000
372,749;  250,189;  240,618;    0,000
373,341;  242,752;  234,984;    0,000
373,932;  247,639;  241,550;    0,000
374,524;  250,204;  243,270;    0,000
375,115;  250,094;  244,316;    0,000
375,707;  254,934;  247,594;    0,000
376,298;  260,798;  251,831;    0,000
376,890;  262,154;  253,240;    0,000
377,481;  269,572;  256,774;    0,000
378,073;  265,790;  250,168;    0,000
378,664;  267,814;  251,531;    0,000
379,255;  270,449;  252,147;    0,000
379,847;  268,274;  250,619;    0,000
380,438;  264,741;  247,796;    0,000
381,029;  263,210;  246,816;    0,000
381,620;  261,665;  244,288;    0,000
382,212;  262,574;  245,604;    0,000
382,803;  260,297;  243,854;    0,000
383,394;  262,914;  243,309;    0,000
383,985;  260,685;  240,939;    0,000
384,576;  265,606;  244,389;    0,000
385,167;  262,180;  242,575;    0,000
385,758;  264,568;  245,111;    0,000
386,349;  262,046;  243,712;    0,000
386,940;  266,903;  247,607;    0,000
387,531;  266,442;  252,439;    0,000
388,122;  267,525;  256,493;    0,000
388,713;  263,719;  252,911;    0,000
389,304;  266,378;  255,892;    0,000
389,895;  267,933;  257,693;    0,000
390,485;  275,098;  268,292;    0,000
391,076;  271,943;  265,205;    0,000
391,667;  274,749;  266,486;    0,000
392,258;  276,866;  265,736;    0,000
392,848;  281,944;  269,066;    0,000
393,439;  281,497;  266,276;    0,000
394,030;  280,140;  264,516;    0,000
394,620;  279,656;  260,640;    0,000
395,211;  283,467;  261,828;    0,000
395,801;  285,532;  259,375;    0,000
396,392;  285,000;  257,600;    0,000
396,982;  285,622;  255,339;    0,000
397,573;  292,425;  260,162;    0,000
398,163;  298,737;  261,856;    0,000
398,753;  297,138;  256,216;    0,000
399,344;  296,146;  255,062;    0,000
399,934;  292,776;  251,800;    0,000
400,524;  297,982;  254,322;    0,000
401,115;  302,377;  255,700;    0,000
401,705;  302,282;  250,461;    0,000
402,295;  303,045;  250,508;    0,000
402,885;  305,641;  250,221;    0,000
403,475;  309,979;  250,185;    0,000
404,065;  318,010;  251,519;    0,000
404,655;  320,785;  249,740;    0,000
405,245;  320,050;  246,981;    0,000
405,835;  329,727;  253,258;    0,000
406,425;  336,422;  255,007;    0,000
407,015;  341,596;  256,960;    0,000
407,605;  347,931;  259,085;    0,000
408,195;  352,659;  262,687;    0,000
408,785;  354,027;  262,663;    0,000
409,375;  360,362;  265,668;    0,000
409,965;  364,131;  266,054;    0,000
410,554;  369,194;  266,891;    0,000
411,144;  377,553;  270,053;    0,000
411,734;  380,931;  270,397;    0,000
412,324;  383,169;  268,015;    0,000
412,913;  389,810;  268,299;    0,000
413,503;  397,202;  271,981;    0,000
414,092;  398,615;  272,467;    0,000
414,682;  402,967;  271,922;    0,000
415,271;  401,770;  268,236;    0,000
415,861;  403,003;  265,582;    0,000
416,450;  409,286;  268,319;    0,000
417,040;  410,345;  268,633;    0,000
417,629;  409,307;  266,235;    0,000
418,219;  411,506;  262,710;    0,000
418,808;  413,512;  261,422;    0,000
419,397;  416,639;  260,415;    0,000
419,986;  427,544;  265,594;    0,000
420,576;  433,973;  267,100;    0,000
421,165;  438,466;  268,885;    0,000
421,754;  440,002;  264,798;    0,000
422,343;  447,413;  267,904;    0,000
422,932;  446,463;  264,405;    0,000
423,521;  451,683;  265,502;    0,000
424,111;  445,002;  258,886;    0,000
424,700;  445,697;  259,019;    0,000
425,289;  449,963;  256,699;    0,000
425,878;  453,939;  259,392;    0,000
426,466;  450,745;  256,014;    0,000
427,055;  455,572;  258,622;    0,000
427,644;  457,921;  259,672;    0,000
428,233;  465,247;  264,083;    0,000
428,822;  465,628;  260,465;    0,000
429,411;  466,529;  260,750;    0,000
429,999;  470,893;  262,128;    0,000
430,588;  471,844;  260,544;    0,000
431,177;  471,645;  259,795;    0,000
431,766;  473,458;  260,753;    0,000
432,354;  476,793;  260,748;    0,000
432,943;  472,149;  258,111;    0,000
433,531;  472,138;  257,433;    0,000
434,120;  473,041;  254,996;    0,000
434,708;  476,337;  255,948;    0,000
435,297;  480,875;  258,099;    0,000
435,885;  480,231;  253,315;    0,000
436,474;  477,963;  248,315;    0,000
437,062;  481,722;  246,455;    0,000
437,650;  486,728;  246,416;    0,000
438,239;  485,332;  244,101;    0,000
438,827;  486,875;  241,945;    0,000
439,415;  488,536;  237,557;    0,000
440,003;  494,464;  241,542;    0,000
440,592;  500,987;  244,478;    0,000
441,180;  507,125;  248,450;    0,000
441,768;  507,485;  245,871;    0,000
442,356;  517,659;  249,567;    0,000
442,944;  523,605;  252,979;    0,000
443,532;  529,400;  255,930;    0,000
444,120;  528,399;  249,975;    0,000
444,708;  531,675;  249,633;    0,000
445,296;  534,592;  245,660;    0,000
445,884;  542,076;  249,389;    0,000
446,472;  542,877;  247,887;    0,000
447,060;  545,807;  245,555;    0,000
447,647;  548,411;  244,988;    0,000
448,235;  558,977;  250,613;    0,000
448,823;  559,828;  249,174;    0,000
449,411;  566,302;  252,970;    0,000
449,998;  571,455;  248,784;    0,000
450,586;  575,493;  247,208;    0,000
451,173;  586,605;  250,824;    0,000
451,761;  593,817;  250,938;    0,000
452,349;  601,394;  250,993;    0,000
452,936;  615,858;  254,525;    0,000
453,524;  621,453;  252,976;    0,000
454,111;  629,630;  255,591;    0,000
454,698;  642,104;  258,294;    0,000
455,286;  652,594;  260,011;    0,000
455,873;  662,354;  261,239;    0,000
456,461;  673,748;  262,133;    0,000
457,048;  678,446;  258,698;    0,000
457,635;  689,656;  262,088;    0,000
458,222;  701,550;  263,287;    0,000
458,810;  713,259;  266,463;    0,000
459,397;  714,763;  257,990;    0,000
459,984;  724,283;  260,569;    0,000
460,571;  727,291;  256,247;    0,000
461,158;  734,267;  253,638;    0,000
461,745;  743,955;  251,734;    0,000
462,332;  751,807;  250,932;    0,000
462,919;  759,418;  248,508;    0,000
463,506;  780,207;  258,477;    0,000
464,093;  789,304;  255,464;    0,000
464,680;  803,996;  257,617;    0,000
465,267;  821,376;  263,426;    0,000
465,853;  832,449;  260,970;    0,000
466,440;  847,259;  262,505;    0,000
467,027;  863,206;  263,808;    0,000
467,614;  872,035;  259,329;    0,000
468,200;  892,278;  263,092;    0,000
468,787;  904,277;  261,737;    0,000
469,374;  920,852;  260,891;    0,000
469,960;  939,475;  263,888;    0,000
470,547;  955,421;  262,031;    0,000
471,133;  966,488;  257,284;    0,000
471,720;  982,168;  256,917;    0,000
472,306;  995,911;  257,644;    0,000
472,893; 1009,845;  258,089;    0,000
473,479; 1029,957;  261,826;    0,000
474,065; 1045,307;  260,896;    0,000
474,652; 1061,463;  262,724;    0,000
475,238; 1080,571;  265,230;    0,000
475,824; 1095,077;  260,808;    0,000
476,410; 1116,902;  262,634;    0,000
476,997; 1139,700;  264,502;    0,000
477,583; 1154,179;  260,916;    0,000
478,169; 1173,439;  261,974;    0,000
478,755; 1198,557;  262,301;    0,000
479,341; 1210,151;  258,638;    0,000
479,927; 1228,421;  259,911;    0,000
480,513; 1246,168;  255,849;    0,000
481,099; 1261,854;  253,465;    0,000
481,685; 1281,198;  253,179;    0,000
482,271; 1298,872;  253,007;    0,000
482,857; 1309,269;  246,490;    0,000
483,443; 1337,415;  252,079;    0,000
484,028; 1351,743;  247,732;    0,000
484,614; 1368,099;  247,765;    0,000
485,200; 1381,589;  243,439;    0,000
485,786; 1399,606;  240,957;    0,000
486,371; 1421,821;  242,400;    0,000
486,957; 1445,069;  246,578;    0,000
487,543; 1463,114;  246,197;    0,000
488,128; 1491,679;  250,206;    0,000
488,714; 1512,238;  251,568;    0,000
489,299; 1543,309;  259,992;    0,000
489,885; 1561,379;  258,537;    0,000
490,470; 1576,361;  257,390;    0,000
491,055; 1588,635;  254,111;    0,000
491,641; 1608,286;  255,055;    0,000
492,226; 1629,257;  260,389;    0,000
492,811; 1643,838;  254,750;    0,000
493,397; 1659,152;  254,919;    0,000
493,982; 1678,082;  256,648;    0,000
494,567; 1697,324;  256,162;    0,000
495,152; 1717,401;  258,532;    0,000
495,738; 1728,727;  254,086;    0,000
496,323; 1742,943;  251,843;    0,000
496,908; 1763,308;  254,065;    0,000
497,493; 1772,815;  250,812;    0,000
498,078; 1786,659;  251,709;    0,000
498,663; 1797,734;  250,125;    0,000
499,248; 1813,522;  248,506;    0,000
499,833; 1828,798;  247,788;    0,000
500,417; 1833,810;  242,695;    0,000
501,002; 1845,975;  242,193;    0,000
501,587; 1859,549;  238,914;    0,000
502,172; 1874,662;  239,588;    0,000
502,757; 1887,466;  238,194;    0,000
503,341; 1901,939;  241,729;    0,000
503,926; 1911,786;  240,716;    0,000
504,511; 1922,906;  240,903;    0,000
505,095; 1942,555;  248,322;    0,000
505,680; 1955,389;  250,122;    0,000
506,264; 1974,045;  257,819;    0,000
506,849; 1981,196;  251,368;    0,000
507,433; 1996,597;  253,752;    0,000
508,018; 2015,734;  257,965;    0,000
508,602; 2033,729;  261,651;    0,000
509,186; 2039,977;  259,215;    0,000
509,771; 2046,456;  256,574;    0,000
510,355; 2054,894;  252,093;    0,000
510,939; 2068,743;  255,325;    0,000
511,524; 2080,498;  254,618;    0,000
512,108; 2089,944;  252,347;    0,000
512,692; 2105,445;  253,454;    0,000
513,276; 2115,904;  246,569;    0,000
513,860; 2138,362;  251,344;    0,000
514,444; 2149,938;  245,930;    0,000
515,028; 2169,889;  250,616;    0,000
515,612; 2182,347;  245,847;    0,000
516,196; 2195,551;  246,873;    0,000
516,780; 2208,100;  247,062;    0,000
517,364; 2224,000;  249,719;    0,000
517,948; 2238,263;  250,687;    0,000
518,532; 2254,438;  254,527;    0,000
519,115; 2267,488;  251,718;    0,000
519,699; 2287,230;  259,501;    0,000
520,283; 2303,183;  261,003;    0,000
520,867; 2320,493;  260,760;    0,000
521,450; 2336,064;  261,295;    0,000
522,034; 2349,762;  261,988;    0,000
522,617; 2362,624;  262,194;    0,000
523,201; 2377,666;  265,138;    0,000
523,784; 2384,014;  258,227;    0,000
524,368; 2401,150;  257,385;    0,000
524,951; 2420,926;  258,779;    0,000
525,535; 2438,989;  259,987;    0,000
526,118; 2458,672;  259,487;    0,000
526,702; 2476,156;  257,499;    0,000
527,285; 2500,557;  261,842;    0,000
527,868; 2525,790;  262,851;    0,000
528,451; 2547,164;  263,683;    0,000
529,035; 2565,576;  262,356;    0,000
529,618; 2583,540;  261,786;    0,000
530,201; 2611,944;  262,815;    0,000
530,784; 2631,192;  263,076;    0,000
531,367; 2656,378;  263,668;    0,000
531,950; 2677,471;  263,956;    0,000
532,533; 2699,538;  266,343;    0,000
533,116; 2729,716;  272,031;    0,000
533,699; 2753,194;  270,042;    0,000
534,282; 2770,584;  265,975;    0,000
534,865; 2794,432;  265,056;    0,000
535,448; 2814,621;  259,457;    0,000
536,030; 2839,690;  260,227;    0,000
536,613; 2867,013;  258,261;    0,000
537,196; 2887,283;  250,764;    0,000
537,778; 2921,347;  253,173;    0,000
538,361; 2960,980;  255,563;    0,000
538,944; 2998,364;  257,692;    0,000
539,526; 3040,307;  264,423;    0,000
540,109; 3080,113;  267,570;    0,000
540,691; 3115,449;  267,620;    0,000
541,274; 3157,779;  271,078;    0,000
541,856; 3195,299;  271,170;    0,000
542,439; 3236,610;  275,525;    0,000
543,021; 3275,874;  273,547;    0,000
543,603; 3315,260;  272,220;    0,000
544,186; 3360,833;  268,326;    0,000
544,768; 3412,395;  270,325;    0,000
545,350; 3457,626;  269,367;    0,000
545,932; 3502,681;  268,234;    0,000
546,515; 3545,949;  265,942;    0,000
547,097; 3594,715;  265,698;    0,000
547,679; 3643,324;  267,069;    0,000
548,261; 3694,469;  271,534;    0,000
548,843; 3738,368;  269,930;    0,000
549,425; 3785,086;  269,030;    0,000
550,007; 3839,703;  271,009;    0,000
550,589; 3891,398;  270,362;    0,000
551,171; 3940,824;  270,839;    0,000
551,752; 3989,220;  265,105;    0,000
552,334; 4036,262;  260,576;    0,000
552,916; 4090,828;  261,238;    0,000
553,498; 4145,039;  260,454;    0,000
554,079; 4194,537;  256,369;    0,000
554,661; 4250,663;  255,012;    0,000
555,243; 4312,533;  255,472;    0,000
555,824; 4364,965;  255,996;    0,000
556,406; 4422,598;  254,216;    0,000
556,987; 4482,897;  251,841;    0,000
557,569; 4548,612;  251,488;    0,000
558,150; 4610,967;  256,323;    0,000
558,732; 4679,875;  259,544;    0,000
559,313; 4750,520;  259,289;    0,000
559,894; 4826,347;  257,912;    0,000
560,476; 4901,839;  258,311;    0,000
561,057; 4967,318;  258,022;    0,000
561,638; 5032,668;  261,086;    0,000
562,219; 5099,352;  254,565;    0,000
562,801; 5163,063;  252,044;    0,000
563,382; 5230,264;  252,728;    0,000
563,963; 5303,822;  255,558;    0,000
564,544; 5369,869;  254,343;    0,000
565,125; 5450,218;  251,563;    0,000
565,706; 5533,873;  252,219;    0,000
566,287; 5613,866;  253,565;    0,000
566,868; 5686,190;  250,874;    0,000
567,449; 5766,350;  251,190;    0,000
568,030; 5841,584;  248,971;    0,000
568,610; 5926,323;  251,542;    0,000
569,191; 6010,617;  254,743;    0,000
569,772; 6087,919;  252,371;    0,000
570,353; 6177,788;  250,584;    0,000
570,933; 6272,673;  251,704;    0,000
571,514; 6355,023;  248,239;    0,000
572,094; 6442,150;  247,208;    0,000
572,675; 6524,655;  244,184;    0,000
573,256; 6610,596;  246,226;    0,000
573,836; 6705,901;  243,062;    0,000
574,417; 6796,738;  245,329;    0,000
574,997; 6899,175;  250,444;    0,000
575,577; 7000,426;  252,240;    0,000
576,158; 7103,028;  255,950;    0,000
576,738; 7212,453;  261,059;    0,000
577,318; 7323,109;  260,621;    0,000
577,898; 7435,882;  264,233;    0,000
578,479; 7548,594;  264,338;    0,000
579,059; 7643,737;  259,650;    0,000
579,639; 7747,006;  260,547;    0,000
580,219; 7854,619;  258,823;    0,000
580,799; 7957,471;  254,051;    0,000
581,379; 8063,101;  249,415;    0,000
581,959; 8163,761;  247,527;    0,000
582,539; 8263,219;  249,237;    0,000
583,119; 8365,354;  247,717;    0,000
583,699; 8475,911;  247,045;    0,000
584,279; 8573,939;  245,597;    0,000
584,859; 8686,541;  250,336;    0,000
585,438; 8787,408;  251,422;    0,000
586,018; 8892,942;  251,537;    0,000
586,598; 8999,985;  250,061;    0,000
587,177; 9111,898;  250,660;    0,000
587,757; 9203,836;  251,752;    0,000
588,337; 9311,433;  253,612;    0,000
588,916; 9411,844;  252,747;    0,000
589,496; 9505,362;  251,183;    0,000
590,075; 9595,624;  254,184;    0,000
590,654; 9686,548;  253,285;    0,000
591,234; 9770,701;  253,104;    0,000
591,813; 9875,243;  253,109;    0,000
592,393; 9982,606;  250,467;    0,000
592,972;10079,641;  248,901;    0,000
593,551;10185,241;  253,295;    0,000
594,130;10288,300;  252,929;    0,000
594,710;10392,307;  256,140;    0,000
595,289;10496,937;  256,350;    0,000
595,868;10589,442;  254,909;    0,000
596,447;10679,314;  257,732;    0,000
597,026;10763,052;  259,218;    0,000
597,605;10845,351;  259,170;    0,000
598,184;10927,736;  253,643;    0,000
598,763;11008,822;  253,969;    0,000
599,342;11095,575;  254,811;    0,000
599,920;11168,373;  254,227;    0,000
600,499;11234,407;  257,179;    0,000
601,078;11296,373;  254,611;    0,000
601,657;11351,048;  254,015;    0,000
602,236;11405,278;  258,225;    0,000
602,814;11448,941;  255,697;    0,000
603,393;11498,273;  254,089;    0,000
603,971;11561,779;  257,703;    0,000
604,550;11616,563;  255,885;    0,000
605,128;11676,463;  255,768;    0,000
605,707;11753,157;  258,010;    0,000
606,285;11830,898;  256,517;    0,000
606,864;11912,456;  259,545;    0,000
607,442;11994,673;  261,543;    0,000
608,020;12065,324;  262,527;    0,000
608,599;12151,295;  261,153;    0,000
609,177;12243,430;  267,088;    0,000
609,755;12327,997;  262,899;    0,000
610,333;12402,666;  260,668;    0,000
610,912;12488,895;  261,503;    0,000
611,490;12561,520;  261,456;    0,000
612,068;12643,153;  257,011;    0,000
612,646;12718,589;  259,401;    0,000
613,224;12781,101;  258,192;    0,000
613,802;12841,148;  259,362;    0,000
614,380;12903,783;  262,417;    0,000
614,958;12963,463;  261,604;    0,000
615,535;13025,849;  259,556;    0,000
616,113;13080,101;  263,270;    0,000
616,691;13110,395;  260,499;    0,000
617,269;13163,811;  257,929;    0,000
617,846;13207,361;  258,597;    0,000
618,424;13250,166;  257,153;    0,000
619,002;13284,566;  257,412;    0,000
619,579;13320,078;  258,127;    0,000
620,157;13343,316;  259,895;    0,000
620,734;13380,311;  263,295;    0,000
621,312;13392,255;  263,716;    0,000
621,889;13414,161;  264,051;    0,000
622,467;13437,370;  264,926;    0,000
623,044;13468,172;  265,122;    0,000
623,621;13494,944;  266,501;    0,000
624,198;13524,842;  262,823;    0,000
624,776;13576,663;  259,284;    0,000
625,353;13643,779;  258,854;    0,000
625,930;13707,282;  258,825;    0,000
626,507;13785,093;  260,944;    0,000
627,084;13860,123;  259,324;    0,000
627,661;13935,678;  257,543;    0,000
628,238;14016,506;  258,200;    0,000
628,815;14094,842;  258,318;    0,000
629,392;14172,009;  257,186;    0,000
629,969;14256,898;  258,527;    0,000
630,546;14321,390;  257,854;    0,000
631,123;14389,800;  259,866;    0,000
631,700;14457,990;  262,100;    0,000
632,276;14534,587;  261,257;    0,000
632,853;14594,205;  265,053;    0,000
633,430;14649,448;  268,348;    0,000
634,006;14696,642;  268,139;    0,000
634,583;14738,017;  271,242;    0,000
635,160;14780,021;  271,058;    0,000
635,736;14812,409;  270,849;    0,000
636,313;14857,612;  269,367;    0,000
636,889;14910,893;  264,866;    0,000
637,466;14964,124;  266,076;    0,000
638,042;15020,463;  265,493;    0,000
638,618;15080,815;  260,950;    0,000
639,194;15137,946;  257,652;    0,000
639,771;15213,643;  254,357;    0,000
640,347;15287,738;  258,360;    0,000
640,923;15341,839;  258,692;    0,000
641,499;15393,225;  256,268;    0,000
642,075;15454,482;  255,886;    0,000
642,651;15531,097;  257,593;    0,000
643,227;15614,168;  260,449;    0,000
643,803;15682,911;  265,937;    0,000
644,379;15737,154;  264,418;    0,000
644,955;15787,483;  264,528;    0,000
645,531;15860,583;  266,136;    0,000
646,107;15920,970;  266,310;    0,000
646,683;15974,684;  261,630;    0,000
647,259;16003,841;  260,637;    0,000
647,834;16040,142;  258,141;    0,000
648,410;16087,527;  253,875;    0,000
648,986;16144,327;  253,129;    0,000
649,561;16183,085;  254,212;    0,000
650,137;16212,371;  252,304;    0,000
650,712;16233,557;  252,114;    0,000
651,288;16281,042;  253,099;    0,000
651,863;16334,271;  253,534;    0,000
652,439;16392,729;  253,932;    0,000
653,014;16459,301;  255,795;    0,000
653,589;16539,586;  250,301;    0,000
654,165;16622,244;  250,942;    0,000
654,740;16722,758;  252,702;    0,000
655,315;16809,658;  249,966;    0,000
655,890;16906,357;  252,999;    0,000
656,465;16990,744;  253,017;    0,000
657,040;17078,445;  248,400;    0,000
657,616;17154,145;  246,150;    0,000
658,191;17243,488;  247,818;    0,000
658,766;17328,674;  249,874;    0,000
659,340;17428,902;  248,099;    0,000
659,915;17531,545;  246,527;    0,000
660,490;17621,359;  245,980;    0,000
661,065;17713,617;  247,975;    0,000
661,640;17807,617;  247,348;    0,000
662,215;17906,318;  245,919;    0,000
662,789;18004,289;  246,881;    0,000
663,364;18086,318;  248,277;    0,000
663,939;18151,004;  243,695;    0,000
664,513;18240,934;  246,045;    0,000
665,088;18328,391;  245,948;    0,000
665,662;18413,146;  249,638;    0,000
666,237;18517,619;  251,479;    0,000
666,811;18612,805;  246,859;    0,000
667,385;18717,563;  248,055;    0,000
667,960;18832,791;  247,302;    0,000
668,534;18955,592;  245,849;    0,000
669,108;19066,391;  245,342;    0,000
669,683;19194,834;  242,561;    0,000
670,257;19308,936;  238,549;    0,000
670,831;19432,250;  237,278;    0,000
671,405;19556,064;  236,535;    0,000
671,979;19702,264;  235,432;    0,000
672,553;19848,492;  234,939;    0,000
673,127;20021,508;  236,778;    0,000
673,701;20168,893;  234,465;    0,000
674,275;20325,865;  234,272;    0,000
674,849;20493,822;  236,680;    0,000
675,423;20655,207;  235,712;    0,000
675,997;20801,594;  237,219;    0,000
676,570;20932,938;  236,931;    0,000
677,144;21055,965;  234,048;    0,000
677,718;21203,637;  239,117;    0,000
678,292;21331,322;  241,727;    0,000
678,865;21448,309;  241,063;    0,000
679,439;21565,453;  242,267;    0,000
680,012;21671,295;  241,816;    0,000
680,586;21782,039;  241,838;    0,000
681,159;21889,553;  242,501;    0,000
681,733;21972,354;  242,400;    0,000
682,306;22057,354;  239,225;    0,000
682,879;22168,068;  240,657;    0,000
683,453;22272,111;  240,089;    0,000
684,026;22396,525;  242,606;    0,000
684,599;22530,098;  242,043;    0,000
685,172;22656,369;  244,760;    0,000
685,745;22802,041;  244,524;    0,000
686,318;22965,297;  245,944;    0,000
686,891;23104,084;  244,057;    0,000
687,464;23253,441;  245,022;    0,000
688,037;23377,855;  244,939;    0,000
688,610;23493,484;  243,183;    0,000
689,183;23621,170;  242,404;    0,000
689,756;23769,057;  242,387;    0,000
690,329;23894,471;  240,662;    0,000
690,902;24030,313;  243,891;    0,000
691,474;24161,113;  241,976;    0,000
692,047;24355,971;  238,492;    0,000
692,620;24540,885;  243,035;    0,000
693,192;24717,057;  242,863;    0,000
693,765;24853,385;  242,311;    0,000
694,337;24990,043;  241,948;    0,000
694,910;25133,057;  242,407;    0,000
695,482;25307,330;  244,929;    0,000
696,055;25431,615;  246,681;    0,000
696,627;25577,473;  247,162;    0,000
697,199;25704,916;  241,539;    0,000
697,772;25836,959;  239,887;    0,000
698,344;26018,002;  240,238;    0,000
698,916;26180,615;  235,678;    0,000
699,488;26335,516;  233,481;    0,000
700,060;26490,588;  232,502;    0,000
700,633;26638,531;  229,934;    0,000
701,205;26808,188;  233,210;    0,000
701,777;26971,902;  236,673;    0,000
702,349;27104,703;  237,645;    0,000
702,920;27233,875;  239,883;    0,000
703,492;27345,732;  238,511;    0,000
704,064;27471,404;  237,125;    0,000
704,636;27607,805;  237,060;    0,000
705,208;27750,805;  234,116;    0,000
705,779;27937,133;  230,690;    0,000
706,351;28122,076;  230,592;    0,000
706,923;28321,547;  226,774;    0,000
707,494;28540,291;  228,590;    0,000
708,066;28759,934;  228,357;    0,000
708,638;28985,719;  226,571;    0,000
709,209;29207,463;  229,691;    0,000
709,780;29402,105;  228,023;    0,000
710,352;29627,592;  225,869;    0,000
710,923;29853,734;  230,893;    0,000
711,494;30059,979;  227,040;    0,000
712,066;30271,420;  230,141;    0,000
712,637;30478,691;  228,793;    0,000
713,208;30695,379;  229,881;    0,000
713,779;30936,664;  232,612;    0,000
714,350;31128,094;  234,140;    0,000
714,922;31286,365;  232,259;    0,000
715,492;31482,807;  234,523;    0,000
716,064;31648,994;  232,506;    0,000
716,634;31801,080;  232,442;    0,000
717,205;31974,379;  235,004;    0,000
717,776;32130,395;  234,572;    0,000
718,347;32291,381;  236,812;    0,000
718,918;32501,166;  237,204;    0,000
719,489;32662,994;  238,098;    0,000
720,059;32830,223;  238,865;    0,000
720,630;32990,082;  240,833;    0,000
721,201;33134,496;  238,909;    0,000
721,771;33296,281;  240,538;    0,000
722,342;33491,012;  241,133;    0,000
722,912;33660,496;  239,642;    0,000
723,483;33852,883;  239,604;    0,000
724,053;34068,609;  241,219;    0,000
724,623;34293,754;  239,823;    0,000
725,194;34510,125;  239,468;    0,000
725,764;34744,953;  239,967;    0,000
726,334;34963,441;  238,789;    0,000
726,904;35159,613;  235,993;    0,000
727,475;35398,984;  239,583;    0,000
728,045;35587,496;  237,339;    0,000
728,615;35829,641;  237,634;    0,000
729,185;36084,613;  238,833;    0,000
729,755;36273,656;  234,822;    0,000
730,325;36469,871;  231,614;    0,000
730,895;36701,586;  234,866;    0,000
731,465;36851,656;  230,298;    0,000
732,034;37063,457;  231,329;    0,000
732,604;37235,398;  235,100;    0,000
733,174;37384,973;  232,612;    0,000
733,744;37586,258;  234,120;    0,000
734,313;37790,398;  239,443;    0,000
734,883;37999,801;  236,824;    0,000
735,453;38279,258;  239,424;    0,000
736,022;38485,016;  237,785;    0,000
736,592;38703,316;  237,104;    0,000
737,161;38925,957;  240,513;    0,000
737,731;39133,844;  242,932;    0,000
738,300;39333,016;  240,007;    0,000
738,869;39499,371;  241,203;    0,000
739,439;39625,473;  237,089;    0,000
740,008;39799,203;  239,286;    0,000
740,577;39958,301;  237,025;    0,000
741,146;40138,086;  235,741;    0,000
741,715;40326,445;  232,914;    0,000
742,284;40493,504;  234,189;    0,000
742,853;40714,816;  235,525;    0,000
743,422;40909,059;  238,814;    0,000
743,991;41083,531;  235,422;    0,000
744,560;41281,305;  236,225;    0,000
745,129;41494,633;  234,873;    0,000
745,698;41702,520;  235,886;    0,000
746,267;41962,934;  235,688;    0,000
746,836;42178,520;  233,993;    0,000
747,404;42428,363;  236,829;    0,000
747,973;42680,605;  240,615;    0,000
748,542;42863,090;  240,500;    0,000
749,110;43001,063;  242,198;    0,000
749,679;43132,406;  242,237;    0,000
750,247;43211,891;  238,475;    0,000
750,816;43334,434;  240,612;    0,000
751,384;43405,250;  235,798;    0,000
751,952;43483,621;  234,616;    0,000
752,521;43592,793;  233,754;    0,000
753,089;43721,977;  231,118;    0,000
753,657;43839,449;  231,199;    0,000
754,225;43985,434;  234,364;    0,000
754,794;44074,836;  233,773;    0,000
755,362;44214,406;  235,392;    0,000
755,930;44353,965;  238,381;    0,000
756,498;44489,992;  237,676;    0,000
757,066;44586,207;  238,056;    0,000
757,634;44685,680;  239,277;    0,000
758,202;44721,164;  239,633;    0,000
758,769;44787,309;  242,254;    0,000
759,337;44803,035;  242,770;    0,000
759,905;44793,352;  237,417;    0,000
760,473;44856,281;  238,949;    0,000
761,041;44907,539;  236,451;    0,000
761,608;44945,680;  233,946;    0,000
762,176;45032,738;  234,538;    0,000
762,743;45120,637;  231,104;    0,000
763,311;45236,738;  227,092;    0,000
763,878;45358,340;  228,504;    0,000
764,446;45436,809;  225,817;    0,000
765,013;45545,566;  228,188;    0,000
765,581;45658,980;  229,577;    0,000
766,148;45771,609;  228,399;    0,000
766,715;45865,469;  228,065;    0,000
767,282;45976,410;  232,754;    0,000
767,849;46070,953;  231,726;    0,000
768,417;46121,910;  233,958;    0,000
768,984;46138,754;  230,974;    0,000
769,551;46127,641;  230,177;    0,000
770,118;46127,969;  227,122;    0,000
770,685;46087,699;  225,045;    0,000
771,252;45992,813;  220,230;    0,000
771,819;45986,086;  221,265;    0,000
772,385;45961,871;  218,347;    0,000
772,952;45961,270;  217,637;    0,000
773,519;45968,414;  216,848;    0,000
774,086;45927,801;  217,023;    0,000
774,652;45956,598;  217,362;    0,000
775,219;46006,570;  218,477;    0,000
775,786;46012,457;  220,400;    0,000
776,352;46005,586;  221,159;    0,000
776,919;46004,258;  230,688;    0,000
777,485;45985,301;  232,504;    0,000
778,051;46035,672;  235,978;    0,000
778,618;46026,016;  236,768;    0,000
779,184;46026,785;  233,546;    0,000
779,750;46014,871;  232,536;    0,000
780,317;46029,316;  234,851;    0,000
780,883;46032,488;  229,439;    0,000
781,449;46040,031;  228,476;    0,000
782,015;45971,504;  229,833;    0,000
782,581;45904,715;  232,019;    0,000
783,147;45896,074;  236,782;    0,000
783,713;45839,660;  238,406;    0,000
784,279;45774,875;  241,429;    0,000
784,845;45684,805;  240,041;    0,000
785,411;45647,934;  243,343;    0,000
785,977;45630,074;  238,812;    0,000
786,542;45649,348;  240,275;    0,000
787,108;45593,875;  240,417;    0,000
787,674;45589,148;  239,449;    0,000
788,239;45590,891;  237,405;    0,000
788,805;45607,891;  238,727;    0,000
789,371;45618,090;  237,589;    0,000
789,936;45605,262;  238,830;    0,000
790,501;45566,289;  238,814;    0,000
791,067;45533,605;  237,998;    0,000
791,632;45482,691;  234,741;    0,000
792,198;45460,363;  235,129;    0,000
792,763;45429,820;  233,158;    0,000
793,328;45397,551;  231,396;    0,000
793,893;45386,477;  228,522;    0,000
794,458;45392,520;  225,048;    0,000
795,024;45382,434;  225,206;    0,000
795,589;45391,234;  225,859;    0,000
796,154;45346,508;  223,248;    0,000
796,719;45314,035;  223,590;    0,000
797,284;45242,938;  223,660;    0,000
797,848;45207,094;  224,112;    0,000
798,413;45138,094;  226,977;    0,000
798,978;45080,395;  229,005;    0,000
799,543;44990,895;  228,090;    0,000
800,108;44947,609;  230,094;    0,000
800,672;44924,809;  231,323;    0,000
801,237;44918,410;  231,008;    0,000
801,801;44885,152;  235,200;    0,000
802,366;44874,195;  234,892;    0,000
802,930;44807,723;  232,145;    0,000
803,495;44732,938;  238,275;    0,000
804,059;44625,926;  238,431;    0,000
804,624;44444,754;  237,756;    0,000
805,188;44282,082;  238,060;    0,000
805,752;44105,652;  236,802;    0,000
806,317;43939,867;  234,891;    0,000
806,881;43861,555;  236,899;    0,000
807,445;43811,441;  230,858;    0,000
808,009;43767,781;  231,987;    0,000
808,573;43770,313;  233,258;    0,000
809,137;43765,313;  233,104;    0,000
809,701;43784,598;  233,049;    0,000
810,265;43757,242;  231,842;    0,000
810,829;43700,070;  227,584;    0,000
811,393;43613,883;  228,269;    0,000
811,956;43555,297;  224,552;    0,000
812,520;43500,457;  221,271;    0,000
813,084;43401,227;  217,529;    0,000
813,647;43306,512;  215,274;    0,000
814,211;43219,301;  216,708;    0,000
814,775;43151,387;  217,350;    0,000
815,338;43095,098;  219,455;    0,000
815,902;43001,070;  219,377;    0,000
816,465;42914,629;  221,132;    0,000
817,029;42873,172;  224,254;    0,000
817,592;42796,328;  222,554;    0,000
818,155;42726,273;  226,002;    0,000
818,718;42611,188;  227,508;    0,000
819,282;42512,016;  225,424;    0,000
819,845;42434,430;  228,889;    0,000
820,408;42310,516;  229,960;    0,000
820,971;42139,715;  231,107;    0,000
821,534;41975,730;  236,602;    0,000
822,097;41819,746;  233,057;    0,000
822,660;41708,246;  234,239;    0,000
823,223;41562,773;  233,434;    0,000
823,786;41393,488;  230,461;    0,000
824,349;41254,762;  228,685;    0,000
824,911;41105,445;  223,821;    0,000
825,474;40992,676;  222,253;    0,000
826,037;40905,730;  224,450;    0,000
826,599;40809,805;  226,851;    0,000
827,162;40739,902;  227,611;    0,000
827,724;40694,520;  226,382;    0,000
828,287;40653,348;  228,899;    0,000
828,849;40620,633;  231,111;    0,000
829,412;40544,504;  231,830;    0,000
829,974;40430,133;  231,897;    0,000
830,536;40287,961;  227,686;    0,000
831,099;40119,375;  226,495;    0,000
831,661;39988,578;  229,581;    0,000
832,223;39868,949;  228,140;    0,000
832,785;39803,391;  226,943;    0,000
833,347;39748,633;  223,548;    0,000
833,909;39696,250;  221,826;    0,000
834,471;39680,648;  225,598;    0,000
835,033;39673,965;  226,557;    0,000
835,595;39601,063;  227,485;    0,000
836,157;39516,063;  229,588;    0,000
836,719;39379,938;  230,188;    0,000
837,281;39259,363;  230,429;    0,000
837,842;39184,609;  233,375;    0,000
838,404;39109,035;  230,963;    0,000
838,966;39046,352;  229,123;    0,000
839,527;39019,980;  223,262;    0,000
840,089;38973,352;  217,217;    0,000
840,650;38972,836;  217,485;    0,000
841,212;38955,723;  217,210;    0,000
841,773;38879,938;  212,860;    0,000
842,335;38794,781;  209,262;    0,000
842,896;38672,824;  209,367;    0,000
843,457;38559,125;  212,416;    0,000
844,018;38469,395;  218,072;    0,000
844,580;38294,809;  218,978;    0,000
845,141;38100,969;  217,723;    0,000
845,702;37956,340;  218,589;    0,000
846,263;37796,109;  221,644;    0,000
846,824;37665,254;  220,837;    0,000
847,385;37533,398;  220,625;    0,000
847,946;37379,066;  215,786;    0,000
848,507;37316,141;  218,610;    0,000
849,068;37250,598;  216,085;    0,000
849,628;37170,453;  211,449;    0,000
850,189;37085,883;  205,528;    0,000
850,750;37010,656;  206,811;    0,000
851,310;36936,699;  204,676;    0,000
851,871;36913,328;  205,028;    0,000
852,432;36848,254;  198,534;    0,000
852,992;36793,586;  203,449;    0,000
853,552;36709,656;  204,902;    0,000
854,113;36631,941;  209,414;    0,000
854,673;36551,656;  208,582;    0,000
855,234;36473,027;  208,415;    0,000
855,794;36373,043;  213,995;    0,000
856,354;36281,000;  213,423;    0,000
856,914;36225,355;  211,564;    0,000
857,474;36177,887;  212,196;    0,000
858,034;36171,172;  212,799;    0,000
858,595;36206,516;  215,144;    0,000
859,155;36183,629;  214,486;    0,000
859,714;36204,645;  209,880;    0,000
860,274;36254,016;  212,705;    0,000
860,834;36267,102;  212,379;    0,000
861,394;36311,543;  212,302;    0,000
861,954;36332,887;  211,598;    0,000
862,514;36314,461;  210,691;    0,000
863,073;36334,902;  213,722;    0,000
863,633;36306,387;  212,891;    0,000
864,192;36258,918;  210,689;    0,000
864,752;36227,004;  209,199;    0,000
865,311;36176,816;  208,288;    0,000
865,871;36135,047;  205,683;    0,000
866,430;36109,273;  204,574;    0,000
866,990;36096,219;  201,914;    0,000
867,549;36043,047;  201,525;    0,000
868,108;35989,848;  203,232;    0,000
868,667;35939,875;  204,611;    0,000
869,227;35908,105;  207,483;    0,000
869,786;35851,832;  209,208;    0,000
870,345;35778,262;  207,517;    0,000
870,904;35680,605;  203,678;    0,000
871,463;35648,949;  202,104;    0,000
872,022;35650,805;  202,946;    0,000
872,581;35653,961;  200,013;    0,000
873,140;35633,035;  194,955;    0,000
873,698;35659,391;  193,143;    0,000
874,257;35719,777;  193,468;    0,000
874,816;35789,777;  194,948;    0,000
875,374;35822,406;  195,803;    0,000
875,933;35853,836;  192,751;    0,000
876,492;35849,422;  195,932;    0,000
877,050;35857,063;  194,929;    0,000
877,609;35819,449;  195,626;    0,000
878,167;35752,805;  192,221;    0,000
878,725;35659,863;  194,023;    0,000
879,284;35617,219;  196,801;    0,000
879,842;35502,277;  194,839;    0,000
880,400;35426,391;  196,182;    0,000
880,958;35341,965;  196,298;    0,000
881,517;35275,734;  197,416;    0,000
882,075;35245,520;  201,511;    0,000
882,633;35232,148;  200,106;    0,000
883,191;35242,520;  199,201;    0,000
883,749;35292,762;  200,656;    0,000
884,307;35301,820;  202,009;    0,000
884,865;35307,836;  204,322;    0,000
885,422;35334,105;  202,072;    0,000
885,980;35348,262;  203,992;    0,000
886,538;35384,148;  205,883;    0,000
887,095;35362,090;  205,609;    0,000
887,653;35332,063;  204,133;    0,000
888,211;35356,348;  205,678;    0,000
888,768;35377,906;  207,231;    0,000
889,326;35412,578;  209,058;    0,000
889,883;35431,250;  207,308;    0,000
890,441;35462,820;  206,746;    0,000
890,998;35491,605;  209,438;    0,000
891,555;35510,176;  215,592;    0,000
892,112;35449,277;  210,616;    0,000
892,670;35431,734;  213,531;    0,000
893,227;35331,121;  211,803;    0,000
893,784;35237,465;  211,318;    0,000
894,341;35100,590;  214,995;    0,000
894,898;34957,934;  211,581;    0,000
895,455;34847,020;  210,065;    0,000
896,012;34767,105;  210,223;    0,000
896,569;34650,707;  207,255;    0,000
897,126;34592,578;  210,205;    0,000
897,682;34513,805;  210,839;    0,000
898,239;34462,793;  208,949;    0,000
898,796;34402,633;  210,133;    0,000
899,352;34326,707;  209,989;    0,000
899,909;34267,520;  211,693;    0,000
900,466;34207,719;  213,306;    0,000
901,022;34131,762;  214,936;    0,000
901,579;34014,750;  214,448;    0,000
902,135;33863,879;  212,922;    0,000
902,691;33737,605;  214,362;    0,000
903,248;33595,891;  213,655;    0,000
903,804;33409,105;  212,333;    0,000
904,360;33215,207;  211,808;    0,000
904,916;33016,508;  209,473;    0,000
905,472;32825,121;  210,672;    0,000
906,028;32663,393;  210,831;    0,000
906,584;32483,178;  208,488;    0,000
907,140;32346,963;  208,052;    0,000
907,696;32257,936;  207,505;    0,000
908,252;32158,578;  206,938;    0,000
908,808;32067,721;  205,415;    0,000
909,364;31985,535;  206,212;    0,000
909,920;31882,049;  207,193;    0,000
910,475;31791,035;  206,481;    0,000
911,031;31676,748;  206,818;    0,000
911,587;31569,420;  204,205;    0,000
912,142;31495,221;  202,702;    0,000
912,698;31409,377;  203,679;    0,000
913,253;31351,635;  199,116;    0,000
913,808;31290,920;  198,301;    0,000
914,364;31209,135;  196,593;    0,000
914,919;31129,936;  199,152;    0,000
915,474;31053,691;  203,879;    0,000
916,030;30994,377;  202,706;    0,000
916,585;30922,377;  202,881;    0,000
917,140;30884,277;  203,733;    0,000
917,695;30844,307;  200,922;    0,000
918,250;30820,393;  202,375;    0,000
918,805;30772,648;  197,023;    0,000
919,360;30687,992;  194,792;    0,000
919,915;30594,121;  197,021;    0,000
920,469;30536,721;  198,139;    0,000
921,024;30435,850;  198,038;    0,000
921,579;30344,377;  200,676;    0,000
922,134;30277,307;  200,002;    0,000
922,688;30203,748;  202,786;    0,000
923,243;30167,850;  205,515;    0,000
923,797;30120,549;  204,035;    0,000
924,352;30049,563;  204,322;    0,000
924,906;29961,578;  205,568;    0,000
925,461;29862,420;  205,309;    0,000
926,015;29751,248;  202,242;    0,000
926,569;29654,049;  200,212;    0,000
927,124;29561,563;  200,593;    0,000
927,678;29457,578;  202,859;    0,000
928,232;29345,221;  202,076;    0,000
928,786;29255,877;  201,123;    0,000
929,340;29169,078;  203,869;    0,000
929,894;29056,307;  205,491;    0,000
930,448;28978,078;  207,492;    0,000
931,002;28920,748;  207,396;    0,000
931,556;28877,578;  205,768;    0,000
932,110;28855,820;  201,841;    0,000
932,663;28828,393;  201,971;    0,000
933,217;28790,492;  200,338;    0,000
933,771;28747,234;  202,885;    0,000
934,324;28664,535;  202,963;    0,000
934,878;28517,105;  198,058;    0,000
935,432;28371,334;  199,585;    0,000
935,985;28172,850;  202,416;    0,000
936,538;28002,191;  204,139;    0,000
937,092;27864,477;  202,976;    0,000
937,645;27729,563;  200,878;    0,000
938,198;27611,063;  202,681;    0,000
938,752;27563,678;  208,393;    0,000
939,305;27500,949;  208,148;    0,000
939,858;27480,164;  208,961;    0,000
940,411;27425,777;  210,145;    0,000
940,964;27362,063;  210,751;    0,000
941,517;27315,477;  213,065;    0,000
942,070;27248,035;  212,641;    0,000
942,623;27147,092;  209,458;    0,000
943,176;27043,963;  209,573;    0,000
943,728;26925,936;  208,258;    0,000
944,281;26797,520;  204,818;    0,000
944,834;26675,648;  205,989;    0,000
945,387;26567,664;  203,591;    0,000
945,939;26495,877;  201,319;    0,000
946,492;26390,920;  201,376;    0,000
947,044;26307,078;  200,701;    0,000
947,597;26240,621;  200,166;    0,000
948,149;26161,834;  200,548;    0,000
948,701;26130,520;  199,722;    0,000
949,254;26130,834;  202,352;    0,000
949,806;26116,006;  203,593;    0,000
950,358;26118,477;  205,059;    0,000
950,910;26089,320;  204,118;    0,000
951,462;26027,020;  202,639;    0,000
952,014;25984,621;  204,869;    0,000
952,566;25880,734;  202,698;    0,000
953,118;25728,549;  201,818;    0,000
953,670;25559,092;  199,145;    0,000
954,222;25421,148;  196,979;    0,000
954,774;25286,350;  196,936;    0,000
955,326;25188,148;  197,469;    0,000
955,877;25104,678;  196,769;    0,000
956,429;25050,092;  200,098;    0,000
956,981;25010,092;  200,093;    0,000
957,532;24972,307;  201,002;    0,000
958,084;24905,363;  201,536;    0,000
958,635;24825,363;  204,051;    0,000
959,187;24735,678;  206,759;    0,000
959,738;24627,520;  207,136;    0,000
960,289;24504,863;  207,635;    0,000
960,840;24349,049;  205,733;    0,000
961,392;24239,592;  209,435;    0,000
961,943;24106,063;  205,886;    0,000
962,494;23987,592;  204,815;    0,000
963,045;23873,578;  202,815;    0,000
963,596;23786,164;  202,466;    0,000
964,147;23683,291;  199,959;    0,000
964,698;23604,791;  200,381;    0,000
965,249;23482,277;  198,676;    0,000
965,800;23378,850;  198,108;    0,000
966,350;23297,963;  199,271;    0,000
966,901;23201,977;  197,022;    0,000
967,452;23085,691;  194,105;    0,000
968,002;22970,105;  194,813;    0,000
968,553;22862,264;  195,785;    0,000
969,103;22735,006;  194,262;    0,000
969,654;22612,777;  197,573;    0,000
970,204;22433,592;  193,316;    0,000
970,755;22292,506;  198,635;    0,000
971,305;22148,234;  196,475;    0,000
971,855;22015,277;  197,563;    0,000
972,405;21875,164;  198,476;    0,000
972,956;21769,863;  198,329;    0,000
973,506;21642,191;  195,188;    0,000
974,056;21568,207;  199,055;    0,000
974,606;21488,520;  196,771;    0,000
975,156;21423,363;  202,006;    0,000
975,706;21332,992;  200,901;    0,000
976,255;21212,648;  198,085;    0,000
976,805;21096,877;  194,115;    0,000
977,355;20998,121;  193,511;    0,000
977,905;20889,506;  190,249;    0,000
978,454;20738,605;  186,708;    0,000
979,004;20615,135;  186,169;    0,000
979,554;20494,105;  181,323;    0,000
980,103;20404,893;  183,672;    0,000
980,653;20292,578;  187,109;    0,000
981,202;20178,492;  189,989;    0,000
981,751;20063,477;  190,483;    0,000
982,301;19953,820;  192,135;    0,000
982,850;19828,621;  192,056;    0,000
983,399;19724,291;  195,139;    0,000
983,948;19617,320;  192,845;    0,000
984,497;19523,092;  192,408;    0,000
985,047;19440,748;  192,701;    0,000
985,596;19353,092;  190,479;    0,000
986,144;19311,850;  191,313;    0,000
986,693;19250,605;  190,216;    0,000
987,242;19202,178;  189,391;    0,000
987,791;19166,648;  187,878;    0,000
988,340;19117,135;  187,055;    0,000
988,888;19040,520;  185,666;    0,000
989,437;18961,020;  187,833;    0,000
989,986;18869,807;  187,305;    0,000
990,534;18769,477;  189,511;    0,000
991,083;18636,049;  188,602;    0,000
991,631;18499,436;  194,181;    0,000
992,180;18368,148;  192,253;    0,000
992,728;18281,535;  194,729;    0,000
993,276;18195,707;  194,772;    0,000
993,825;18086,877;  197,686;    0,000
994,373;17980,049;  195,889;    0,000
994,921;17885,791;  198,619;    0,000
995,469;17750,791;  194,948;    0,000
996,017;17608,648;  197,799;    0,000
996,565;17437,820;  195,386;    0,000
997,113;17288,092;  194,233;    0,000
997,661;17142,807;  195,701;    0,000
998,209;17008,877;  193,923;    0,000
998,757;16879,664;  194,433;    0,000
999,304;16752,463;  198,521;    0,000
999,852;16631,492;  198,102;    0,000
1000,400;16509,707;  200,345;    0,000
1000,947;16360,606;  202,122;    0,000
1001,495;16205,292;  199,105;    0,000
1002,042;16044,277;  201,096;    0,000
1002,590;15900,449;  201,802;    0,000
1003,137;15777,264;  201,246;    0,000
1003,684;15652,777;  205,853;    0,000
1004,232;15531,049;  205,866;    0,000
1004,779;15426,949;  204,868;    0,000
1005,326;15329,163;  204,949;    0,000
1005,873;15230,363;  205,993;    0,000
1006,420;15115,635;  208,981;    0,000
1006,967;14993,463;  203,853;    0,000
1007,514;14873,492;  200,048;    0,000
1008,061;14775,577;  198,576;    0,000
1008,608;14666,264;  200,879;    0,000
1009,155;14566,478;  203,512;    0,000
1009,702;14477,420;  200,036;    0,000
1010,248;14386,178;  197,241;    0,000
1010,795;14277,949;  199,646;    0,000
1011,342;14154,806;  203,321;    0,000
1011,888;14017,363;  207,002;    0,000
1012,435;13882,077;  205,935;    0,000
1012,981;13755,206;  205,785;    0,000
1013,528;13642,806;  210,649;    0,000
1014,074;13516,178;  211,203;    0,000
1014,620;13428,420;  214,266;    0,000
1015,166;13343,691;  213,948;    0,000
1015,713;13256,764;  213,669;    0,000
1016,259;13168,863;  212,485;    0,000
1016,805;13075,549;  208,745;    0,000
1017,351;12975,649;  208,248;    0,000
1017,897;12886,920;  205,171;    0,000
1018,443;12777,635;  201,905;    0,000
1018,989;12688,306;  198,913;    0,000
1019,535;12586,277;  195,983;    0,000
1020,080;12467,292;  196,713;    0,000
1020,626;12342,092;  199,155;    0,000
1021,172;12200,992;  196,982;    0,000
1021,717;12036,363;  196,409;    0,000
1022,263;11896,606;  199,171;    0,000
1022,809;11759,221;  199,549;    0,000
1023,354;11632,992;  204,042;    0,000
1023,900;11514,992;  200,485;    0,000
1024,445;11388,449;  197,875;    0,000
1024,990;11271,721;  198,491;    0,000
1025,536;11161,135;  199,736;    0,000
1026,081;11031,706;  196,598;    0,000
1026,626;10905,620;  195,008;    0,000
1027,171;10762,435;  190,711;    0,000
1027,716;10639,163;  195,075;    0,000
1028,261;10515,221;  194,342;    0,000
1028,806;10392,749;  195,149;    0,000
1029,351;10290,292;  194,293;    0,000
1029,896;10192,234;  198,786;    0,000
1030,441;10086,206;  198,806;    0,000
1030,985; 9988,264;  198,338;    0,000
1031,530; 9882,534;  196,731;    0,000
1032,075; 9781,063;  196,178;    0,000
1032,619; 9680,849;  200,828;    0,000
1033,164; 9582,635;  198,722;    0,000
1033,708; 9472,764;  196,279;    0,000
1034,253; 9364,006;  195,459;    0,000
1034,797; 9266,749;  196,476;    0,000
1035,341; 9177,492;  196,176;    0,000
1035,886; 9084,592;  198,575;    0,000
1036,430; 8988,264;  193,261;    0,000
1036,974; 8889,392;  199,781;    0,000
1037,518; 8796,092;  198,938;    0,000
1038,062; 8688,835;  199,306;    0,000
1038,606; 8582,878;  199,698;    0,000
1039,150; 8460,335;  197,595;    0,000
1039,694; 8345,691;  198,072;    0,000
1040,238; 8241,949;  197,332;    0,000
1040,782; 8130,292;  192,828;    0,000
1041,326; 8028,334;  194,282;    0,000
1041,869; 7926,678;  197,628;    0,000
1042,413; 7832,549;  198,241;    0,000
1042,957; 7732,149;  202,171;    0,000
1043,500; 7625,563;  200,459;    0,000
1044,044; 7506,892;  201,346;    0,000
1044,587; 7388,078;  201,756;    0,000
1045,130; 7264,563;  202,998;    0,000
1045,674; 7146,992;  200,305;    0,000
1046,217; 7026,763;  202,883;    0,000
1046,760; 6924,578;  201,263;    0,000
1047,304; 6842,192;  201,275;    0,000
1047,847; 6760,963;  202,502;    0,000
1048,390; 6688,206;  204,491;    0,000
1048,933; 6614,906;  203,545;    0,000
1049,476; 6553,535;  206,341;    0,000
1050,019; 6482,920;  205,258;    0,000
1050,562; 6413,235;  206,332;    0,000
1051,104; 6326,249;  208,866;    0,000
1051,647; 6256,749;  212,155;    0,000
1052,190; 6182,163;  215,566;    0,000
1052,732; 6104,563;  213,151;    0,000
1053,275; 6017,249;  209,453;    0,000
1053,818; 5933,820;  207,208;    0,000
1054,360; 5845,006;  207,191;    0,000
1054,902; 5766,049;  209,083;    0,000
1055,445; 5662,263;  203,278;    0,000
1055,987; 5573,663;  202,881;    0,000
1056,530; 5492,877;  204,958;    0,000
1057,072; 5424,692;  206,759;    0,000
1057,614; 5359,363;  203,476;    0,000
1058,156; 5303,806;  206,599;    0,000
1058,698; 5227,649;  203,358;    0,000
1059,240; 5165,435;  206,353;    0,000
1059,782; 5090,435;  203,668;    0,000
1060,324; 5014,635;  203,211;    0,000
1060,866; 4937,606;  205,362;    0,000
1061,408; 4860,892;  209,819;    0,000
1061,949; 4786,920;  209,153;    0,000
1062,491; 4728,763;  209,405;    0,000
1063,033; 4672,035;  209,529;    0,000
1063,574; 4623,320;  208,592;    0,000
1064,116; 4564,021;  206,232;    0,000
1064,657; 4508,949;  205,076;    0,000
1065,199; 4456,820;  207,033;    0,000
1065,740; 4402,149;  206,936;    0,000
1066,281; 4345,420;  209,778;    0,000
1066,823; 4281,635;  205,196;    0,000
1067,364; 4217,992;  208,968;    0,000
1067,905; 4168,578;  213,685;    0,000
1068,446; 4109,092;  212,301;    0,000
1068,987; 4050,606;  210,768;    0,000
1069,528; 3991,963;  209,179;    0,000
1070,069; 3942,420;  211,116;    0,000
1070,610; 3899,163;  212,905;    0,000
1071,151; 3849,077;  208,663;    0,000
1071,692; 3800,349;  206,752;    0,000
1072,232; 3757,077;  205,788;    0,000
1072,773; 3712,292;  204,421;    0,000
1073,314; 3668,292;  203,598;    0,000
1073,854; 3621,978;  200,458;    0,000
1074,395; 3572,363;  200,966;    0,000
1074,935; 3526,149;  202,371;    0,000
1075,476; 3477,235;  200,971;    0,000
1076,016; 3431,149;  202,911;    0,000
1076,556; 3388,292;  203,479;    0,000
1077,097; 3348,478;  205,328;    0,000
1077,637; 3308,935;  205,439;    0,000
1078,177; 3267,677;  203,913;    0,000
1078,717; 3236,592;  204,766;    0,000
1079,257; 3206,963;  206,941;    0,000
1079,797; 3179,249;  210,331;    0,000
1080,337; 3148,035;  210,848;    0,000
1080,877; 3114,735;  208,226;    0,000
1081,417; 3077,620;  207,406;    0,000
1081,956; 3039,649;  207,436;    0,000
1082,496; 3001,792;  205,606;    0,000
1083,036; 2964,692;  204,488;    0,000
1083,575; 2922,563;  200,176;    0,000
1084,115; 2884,778;  197,792;    0,000
1084,655; 2852,735;  199,815;    0,000
1085,194; 2822,177;  201,346;    0,000
1085,733; 2800,506;  203,708;    0,000
1086,273; 2779,220;  205,421;    0,000
1086,812; 2763,006;  209,239;    0,000
1087,351; 2745,549;  211,091;    0,000
1087,890; 2721,677;  210,099;    0,000
1088,429; 2694,349;  210,881;    0,000
1088,969; 2661,763;  208,909;    0,000
1089,507; 2626,763;  209,501;    0,000
1090,047; 2590,506;  209,315;    0,000
1090,585; 2544,920;  203,596;    0,000
1091,124; 2509,606;  203,602;    0,000
1091,663; 2475,978;  206,195;    0,000
1092,202; 2443,792;  207,848;    0,000
1092,740; 2417,092;  208,743;    0,000
1093,279; 2385,149;  206,413;    0,000
1093,818; 2353,592;  205,158;    0,000
1094,356; 2326,949;  208,232;    0,000
1094,895; 2295,106;  206,805;    0,000
1095,433; 2264,292;  204,838;    0,000
1095,971; 2228,877;  203,221;    0,000
1096,510; 2196,306;  201,822;    0,000
1097,048; 2168,306;  200,842;    0,000
1097,586; 2141,192;  201,033;    0,000
1098,124; 2116,863;  200,926;    0,000
1098,662; 2092,292;  203,608;    0,000
1099,200; 2065,649;  204,806;    0,000
1099,738; 2042,692;  204,136;    0,000
1100,276; 2023,092;  208,125;    0,000

