1,1A
Integration time [ms]:   0,050
Averaging Nr. [scans]: 10
Smoothing Nr. [pixels]: 3
Data measured with spectrometer [name]: 7516255SP
Wave   ;Sample   ;Dark     ;Reference
[nm]   ;[counts] ;[counts] ;[counts] 

177,229;  255,000;  248,380;    0,000
177,829;  252,684;  245,964;    0,000
178,430;  259,209;  248,373;    0,000
179,030;  255,480;  250,642;    0,000
179,630;  256,186;  253,151;    0,000
180,230;  252,383;  249,422;    0,000
180,830;  256,654;  253,310;    0,000
181,430;  252,497;  249,852;    0,000
182,030;  260,096;  255,348;    0,000
182,630;  257,314;  252,722;    0,000
183,230;  264,294;  256,133;    0,000
183,830;  264,201;  255,035;    0,000
184,430;  269,990;  260,918;    0,000
185,030;  273,299;  265,794;    0,000
185,630;  280,028;  273,281;    0,000
186,229;  281,952;  276,549;    0,000
186,829;  284,799;  284,113;    0,000
187,429;  280,699;  284,655;    0,000
188,029;  282,781;  293,060;    0,000
188,628;  287,986;  296,144;    0,000
189,228;  288,962;  298,286;    0,000
189,828;  284,358;  301,049;    0,000
190,428;  279,926;  304,825;    0,000
191,027;  277,075;  307,658;    0,000
191,627;  279,340;  310,938;    0,000
192,227;  275,159;  308,449;    0,000
192,826;  273,144;  309,456;    0,000
193,426;  271,839;  305,352;    0,000
194,025;  279,748;  304,269;    0,000
194,625;  282,074;  297,290;    0,000
195,224;  282,342;  291,007;    0,000
195,824;  281,087;  284,067;    0,000
196,423;  286,699;  284,210;    0,000
197,023;  277,063;  273,975;    0,000
197,622;  282,333;  277,388;    0,000
198,221;  276,932;  271,407;    0,000
198,821;  275,708;  270,071;    0,000
199,420;  276,924;  267,807;    0,000
200,019;  273,133;  265,581;    0,000
200,619;  273,205;  266,708;    0,000
201,218;  278,350;  269,307;    0,000
201,817;  273,426;  262,689;    0,000
202,416;  279,228;  269,320;    0,000
203,016;  278,758;  267,603;    0,000
203,615;  280,156;  269,316;    0,000
204,214;  280,762;  268,581;    0,000
204,813;  283,660;  269,417;    0,000
205,412;  284,275;  270,504;    0,000
206,011;  283,156;  271,061;    0,000
206,610;  276,095;  262,624;    0,000
207,209;  272,062;  260,034;    0,000
207,808;  275,113;  263,300;    0,000
208,407;  277,196;  265,099;    0,000
209,006;  270,330;  259,918;    0,000
209,605;  277,550;  263,852;    0,000
210,204;  274,912;  261,611;    0,000
210,803;  275,390;  263,763;    0,000
211,402;  278,923;  267,671;    0,000
212,001;  276,069;  265,171;    0,000
212,599;  277,267;  265,613;    0,000
213,198;  276,571;  264,736;    0,000
213,797;  268,497;  258,824;    0,000
214,396;  271,546;  262,628;    0,000
214,994;  270,615;  259,891;    0,000
215,593;  270,751;  258,874;    0,000
216,192;  268,979;  256,996;    0,000
216,790;  268,884;  258,235;    0,000
217,389;  271,012;  262,211;    0,000
217,988;  275,798;  265,618;    0,000
218,586;  273,929;  261,907;    0,000
219,185;  274,662;  262,217;    0,000
219,783;  273,470;  261,125;    0,000
220,382;  275,783;  263,945;    0,000
220,980;  278,072;  265,514;    0,000
221,579;  280,891;  265,657;    0,000
222,177;  277,505;  265,160;    0,000
222,776;  278,939;  265,216;    0,000
223,374;  281,233;  267,622;    0,000
223,972;  282,046;  268,758;    0,000
224,571;  279,242;  266,607;    0,000
225,169;  278,801;  266,183;    0,000
225,767;  278,099;  263,128;    0,000
226,366;  278,573;  264,716;    0,000
226,964;  277,826;  265,381;    0,000
227,562;  277,184;  264,573;    0,000
228,160;  277,406;  266,307;    0,000
228,758;  276,827;  263,099;    0,000
229,356;  278,005;  264,018;    0,000
229,955;  276,400;  263,643;    0,000
230,553;  279,023;  262,812;    0,000
231,151;  275,694;  260,474;    0,000
231,749;  277,260;  261,002;    0,000
232,347;  281,119;  261,471;    0,000
232,945;  281,837;  263,359;    0,000
233,543;  280,185;  263,245;    0,000
234,141;  275,171;  259,740;    0,000
234,739;  275,268;  260,786;    0,000
235,337;  282,127;  266,127;    0,000
235,934;  282,489;  268,009;    0,000
236,532;  281,928;  269,234;    0,000
237,130;  280,031;  269,912;    0,000
237,728;  283,737;  271,060;    0,000
238,326;  291,403;  277,127;    0,000
238,923;  287,987;  273,391;    0,000
239,521;  284,607;  270,594;    0,000
240,119;  278,274;  264,347;    0,000
240,716;  277,142;  263,320;    0,000
241,314;  276,085;  260,868;    0,000
241,912;  270,139;  255,973;    0,000
242,509;  272,277;  260,687;    0,000
243,107;  274,292;  265,030;    0,000
243,704;  271,927;  263,643;    0,000
244,302;  277,961;  270,353;    0,000
244,899;  277,484;  268,025;    0,000
245,497;  287,094;  272,907;    0,000
246,094;  284,324;  270,101;    0,000
246,692;  280,035;  264,182;    0,000
247,289;  276,890;  258,082;    0,000
247,887;  281,610;  261,108;    0,000
248,484;  280,667;  261,014;    0,000
249,081;  275,650;  256,929;    0,000
249,679;  270,033;  254,140;    0,000
250,276;  273,001;  257,478;    0,000
250,873;  272,976;  257,489;    0,000
251,470;  278,594;  264,509;    0,000
252,067;  272,916;  257,864;    0,000
252,665;  270,055;  256,501;    0,000
253,262;  273,177;  261,268;    0,000
253,859;  276,566;  264,566;    0,000
254,456;  280,074;  266,818;    0,000
255,053;  277,394;  264,252;    0,000
255,650;  276,088;  264,688;    0,000
256,247;  277,256;  266,436;    0,000
256,844;  278,367;  262,412;    0,000
257,441;  283,875;  265,346;    0,000
258,038;  274,135;  256,555;    0,000
258,635;  275,911;  259,146;    0,000
259,232;  277,057;  258,136;    0,000
259,829;  278,086;  258,534;    0,000
260,426;  280,223;  260,226;    0,000
261,022;  282,769;  265,937;    0,000
261,619;  280,123;  263,246;    0,000
262,216;  284,279;  267,582;    0,000
262,813;  280,686;  263,416;    0,000
263,409;  282,398;  266,190;    0,000
264,006;  282,747;  263,910;    0,000
264,603;  286,718;  266,458;    0,000
265,199;  286,769;  266,212;    0,000
265,796;  283,848;  262,638;    0,000
266,393;  291,074;  270,051;    0,000
266,989;  288,965;  268,950;    0,000
267,586;  289,271;  269,445;    0,000
268,182;  288,815;  271,811;    0,000
268,779;  286,325;  271,297;    0,000
269,375;  287,191;  272,459;    0,000
269,971;  283,158;  269,812;    0,000
270,568;  279,802;  267,102;    0,000
271,164;  278,932;  265,667;    0,000
271,761;  280,238;  266,079;    0,000
272,357;  277,200;  262,751;    0,000
272,953;  277,837;  262,804;    0,000
273,550;  278,513;  263,553;    0,000
274,146;  284,808;  268,732;    0,000
274,742;  286,408;  267,040;    0,000
275,338;  284,739;  266,953;    0,000
275,934;  287,230;  269,701;    0,000
276,531;  285,344;  268,661;    0,000
277,127;  282,448;  266,833;    0,000
277,723;  277,895;  263,505;    0,000
278,319;  270,549;  260,610;    0,000
278,915;  272,338;  265,702;    0,000
279,511;  267,692;  261,135;    0,000
280,107;  267,016;  261,223;    0,000
280,703;  268,557;  261,557;    0,000
281,299;  268,305;  260,275;    0,000
281,895;  267,887;  260,898;    0,000
282,491;  269,328;  261,025;    0,000
283,086;  270,384;  260,856;    0,000
283,682;  274,415;  265,149;    0,000
284,278;  272,903;  263,061;    0,000
284,874;  269,479;  262,221;    0,000
285,470;  274,176;  268,220;    0,000
286,065;  276,809;  268,543;    0,000
286,661;  281,196;  271,852;    0,000
287,257;  273,642;  266,128;    0,000
287,852;  278,347;  269,122;    0,000
288,448;  276,816;  268,736;    0,000
289,044;  277,682;  267,845;    0,000
289,639;  275,688;  264,108;    0,000
290,235;  273,312;  261,245;    0,000
290,830;  271,631;  258,763;    0,000
291,426;  270,947;  256,138;    0,000
292,021;  270,188;  256,966;    0,000
292,617;  267,538;  252,863;    0,000
293,212;  267,622;  253,676;    0,000
293,807;  265,695;  251,590;    0,000
294,403;  269,396;  257,176;    0,000
294,998;  271,583;  259,197;    0,000
295,593;  271,321;  259,471;    0,000
296,189;  269,310;  257,496;    0,000
296,784;  269,985;  257,071;    0,000
297,379;  273,537;  258,813;    0,000
297,974;  275,511;  260,428;    0,000
298,570;  267,371;  252,022;    0,000
299,165;  264,602;  250,170;    0,000
299,760;  266,695;  250,522;    0,000
300,355;  270,420;  254,216;    0,000
300,950;  271,273;  256,042;    0,000
301,545;  271,516;  256,334;    0,000
302,140;  268,905;  255,723;    0,000
302,735;  273,922;  257,293;    0,000
303,330;  279,118;  259,781;    0,000
303,925;  277,660;  258,770;    0,000
304,520;  278,777;  258,857;    0,000
305,115;  280,716;  260,265;    0,000
305,709;  280,413;  258,280;    0,000
306,304;  281,973;  256,457;    0,000
306,899;  280,492;  255,726;    0,000
307,494;  281,803;  257,195;    0,000
308,089;  278,860;  253,993;    0,000
308,683;  279,588;  252,905;    0,000
309,278;  276,255;  249,781;    0,000
309,873;  281,584;  253,016;    0,000
310,467;  285,717;  257,138;    0,000
311,062;  290,096;  259,829;    0,000
311,656;  289,086;  256,316;    0,000
312,251;  297,148;  262,499;    0,000
312,846;  296,882;  260,375;    0,000
313,440;  304,214;  265,566;    0,000
314,035;  301,151;  262,472;    0,000
314,629;  305,750;  264,036;    0,000
315,223;  308,417;  266,656;    0,000
315,818;  311,092;  268,905;    0,000
316,412;  309,891;  265,768;    0,000
317,006;  313,939;  266,867;    0,000
317,601;  313,518;  264,141;    0,000
318,195;  319,480;  268,583;    0,000
318,789;  318,676;  267,468;    0,000
319,384;  324,446;  267,626;    0,000
319,978;  323,525;  264,087;    0,000
320,572;  329,381;  266,422;    0,000
321,166;  334,073;  270,525;    0,000
321,760;  340,164;  271,064;    0,000
322,354;  341,558;  268,470;    0,000
322,948;  342,630;  266,232;    0,000
323,542;  341,538;  262,171;    0,000
324,136;  344,908;  263,390;    0,000
324,730;  349,324;  263,056;    0,000
325,324;  349,961;  258,546;    0,000
325,918;  349,620;  257,352;    0,000
326,512;  354,111;  257,260;    0,000
327,106;  360,878;  260,163;    0,000
327,700;  362,865;  258,710;    0,000
328,294;  369,862;  262,356;    0,000
328,887;  370,936;  260,123;    0,000
329,481;  373,251;  260,701;    0,000
330,075;  376,052;  260,312;    0,000
330,669;  375,808;  256,986;    0,000
331,262;  374,433;  252,608;    0,000
331,856;  378,054;  252,427;    0,000
332,449;  378,979;  249,961;    0,000
333,043;  383,645;  253,043;    0,000
333,637;  384,640;  248,985;    0,000
334,230;  386,546;  247,576;    0,000
334,824;  389,461;  248,912;    0,000
335,417;  393,461;  249,551;    0,000
336,011;  393,340;  249,473;    0,000
336,604;  387,311;  243,618;    0,000
337,197;  384,649;  239,138;    0,000
337,791;  387,130;  241,150;    0,000
338,384;  387,241;  240,818;    0,000
338,977;  389,881;  239,483;    0,000
339,571;  385,983;  236,886;    0,000
340,164;  388,809;  235,665;    0,000
340,757;  399,930;  242,840;    0,000
341,350;  403,392;  242,880;    0,000
341,943;  404,119;  240,909;    0,000
342,537;  404,185;  238,109;    0,000
343,130;  405,169;  235,497;    0,000
343,723;  413,937;  237,841;    0,000
344,316;  417,117;  235,469;    0,000
344,909;  421,814;  233,252;    0,000
345,502;  430,762;  237,004;    0,000
346,095;  437,353;  238,174;    0,000
346,688;  448,097;  242,384;    0,000
347,281;  456,234;  241,916;    0,000
347,874;  462,185;  241,894;    0,000
348,466;  474,315;  249,562;    0,000
349,059;  482,028;  251,577;    0,000
349,652;  484,345;  246,126;    0,000
350,245;  488,540;  245,978;    0,000
350,838;  493,000;  244,679;    0,000
351,430;  502,039;  248,030;    0,000
352,023;  505,055;  244,793;    0,000
352,616;  505,445;  239,239;    0,000
353,208;  512,550;  239,597;    0,000
353,801;  525,787;  244,491;    0,000
354,393;  539,127;  245,289;    0,000
354,986;  548,555;  246,962;    0,000
355,578;  554,249;  246,807;    0,000
356,171;  566,124;  251,427;    0,000
356,763;  581,283;  255,434;    0,000
357,356;  587,374;  253,357;    0,000
357,948;  592,229;  250,493;    0,000
358,541;  599,615;  251,416;    0,000
359,133;  609,204;  251,927;    0,000
359,725;  619,169;  249,585;    0,000
360,318;  624,459;  246,151;    0,000
360,910;  631,096;  244,801;    0,000
361,502;  637,731;  244,266;    0,000
362,094;  646,611;  244,408;    0,000
362,686;  651,802;  239,185;    0,000
363,279;  654,669;  236,351;    0,000
363,871;  667,529;  241,677;    0,000
364,463;  678,684;  243,320;    0,000
365,055;  683,329;  241,634;    0,000
365,647;  690,416;  242,106;    0,000
366,239;  695,502;  240,313;    0,000
366,831;  705,141;  244,023;    0,000
367,423;  715,734;  246,456;    0,000
368,015;  717,385;  243,213;    0,000
368,607;  721,304;  243,993;    0,000
369,198;  731,216;  246,042;    0,000
369,790;  736,667;  244,907;    0,000
370,382;  740,314;  245,851;    0,000
370,974;  741,189;  243,277;    0,000
371,565;  744,184;  242,518;    0,000
372,157;  744,988;  240,254;    0,000
372,749;  744,334;  240,618;    0,000
373,341;  738,986;  234,984;    0,000
373,932;  745,218;  241,550;    0,000
374,524;  750,187;  243,270;    0,000
375,115;  754,647;  244,316;    0,000
375,707;  759,214;  247,594;    0,000
376,298;  765,430;  251,831;    0,000
376,890;  771,621;  253,240;    0,000
377,481;  780,757;  256,774;    0,000
378,073;  777,793;  250,168;    0,000
378,664;  781,878;  251,531;    0,000
379,255;  783,550;  252,147;    0,000
379,847;  783,804;  250,619;    0,000
380,438;  782,698;  247,796;    0,000
381,029;  785,802;  246,816;    0,000
381,620;  786,569;  244,288;    0,000
382,212;  790,476;  245,604;    0,000
382,803;  793,067;  243,854;    0,000
383,394;  797,101;  243,309;    0,000
383,985;  800,294;  240,939;    0,000
384,576;  809,585;  244,389;    0,000
385,167;  810,328;  242,575;    0,000
385,758;  818,518;  245,111;    0,000
386,349;  823,772;  243,712;    0,000
386,940;  833,291;  247,607;    0,000
387,531;  843,742;  252,439;    0,000
388,122;  854,199;  256,493;    0,000
388,713;  861,091;  252,911;    0,000
389,304;  874,128;  255,892;    0,000
389,895;  886,384;  257,693;    0,000
390,485;  908,133;  268,292;    0,000
391,076;  915,142;  265,205;    0,000
391,667;  931,680;  266,486;    0,000
392,258;  944,073;  265,736;    0,000
392,848;  961,708;  269,066;    0,000
393,439;  972,784;  266,276;    0,000
394,030;  986,454;  264,516;    0,000
394,620;  995,972;  260,640;    0,000
395,211; 1015,971;  261,828;    0,000
395,801; 1030,202;  259,375;    0,000
396,392; 1046,267;  257,600;    0,000
396,982; 1062,057;  255,339;    0,000
397,573; 1091,601;  260,162;    0,000
398,163; 1113,653;  261,856;    0,000
398,753; 1132,156;  256,216;    0,000
399,344; 1149,747;  255,062;    0,000
399,934; 1165,381;  251,800;    0,000
400,524; 1189,113;  254,322;    0,000
401,115; 1211,115;  255,700;    0,000
401,705; 1224,833;  250,461;    0,000
402,295; 1247,077;  250,508;    0,000
402,885; 1268,605;  250,221;    0,000
403,475; 1292,152;  250,185;    0,000
404,065; 1318,915;  251,519;    0,000
404,655; 1342,070;  249,740;    0,000
405,245; 1368,023;  246,981;    0,000
405,835; 1401,375;  253,258;    0,000
406,425; 1429,260;  255,007;    0,000
407,015; 1457,234;  256,960;    0,000
407,605; 1486,722;  259,085;    0,000
408,195; 1520,923;  262,687;    0,000
408,785; 1550,500;  262,663;    0,000
409,375; 1575,643;  265,668;    0,000
409,965; 1604,183;  266,054;    0,000
410,554; 1631,480;  266,891;    0,000
411,144; 1663,439;  270,053;    0,000
411,734; 1692,014;  270,397;    0,000
412,324; 1713,744;  268,015;    0,000
412,913; 1739,903;  268,299;    0,000
413,503; 1773,943;  271,981;    0,000
414,092; 1794,786;  272,467;    0,000
414,682; 1815,561;  271,922;    0,000
415,271; 1834,720;  268,236;    0,000
415,861; 1852,996;  265,582;    0,000
416,450; 1875,060;  268,319;    0,000
417,040; 1899,407;  268,633;    0,000
417,629; 1914,204;  266,235;    0,000
418,219; 1929,578;  262,710;    0,000
418,808; 1949,629;  261,422;    0,000
419,397; 1964,873;  260,415;    0,000
419,986; 1985,518;  265,594;    0,000
420,576; 2003,637;  267,100;    0,000
421,165; 2012,793;  268,885;    0,000
421,754; 2020,299;  264,798;    0,000
422,343; 2038,915;  267,904;    0,000
422,932; 2046,546;  264,405;    0,000
423,521; 2057,328;  265,502;    0,000
424,111; 2064,668;  258,886;    0,000
424,700; 2073,527;  259,019;    0,000
425,289; 2084,342;  256,699;    0,000
425,878; 2094,641;  259,392;    0,000
426,466; 2095,594;  256,014;    0,000
427,055; 2105,603;  258,622;    0,000
427,644; 2114,582;  259,672;    0,000
428,233; 2122,178;  264,083;    0,000
428,822; 2119,931;  260,465;    0,000
429,411; 2123,051;  260,750;    0,000
429,999; 2128,348;  262,128;    0,000
430,588; 2126,963;  260,544;    0,000
431,177; 2124,706;  259,795;    0,000
431,766; 2123,368;  260,753;    0,000
432,354; 2125,113;  260,748;    0,000
432,943; 2126,309;  258,111;    0,000
433,531; 2126,840;  257,433;    0,000
434,120; 2127,770;  254,996;    0,000
434,708; 2134,605;  255,948;    0,000
435,297; 2140,033;  258,099;    0,000
435,885; 2140,709;  253,315;    0,000
436,474; 2140,729;  248,315;    0,000
437,062; 2142,949;  246,455;    0,000
437,650; 2143,746;  246,416;    0,000
438,239; 2146,925;  244,101;    0,000
438,827; 2149,686;  241,945;    0,000
439,415; 2149,524;  237,557;    0,000
440,003; 2163,132;  241,542;    0,000
440,592; 2169,817;  244,478;    0,000
441,180; 2181,429;  248,450;    0,000
441,768; 2193,293;  245,871;    0,000
442,356; 2204,369;  249,567;    0,000
442,944; 2220,789;  252,979;    0,000
443,532; 2235,197;  255,930;    0,000
444,120; 2238,299;  249,975;    0,000
444,708; 2257,065;  249,633;    0,000
445,296; 2269,895;  245,660;    0,000
445,884; 2283,660;  249,389;    0,000
446,472; 2297,136;  247,887;    0,000
447,060; 2310,659;  245,555;    0,000
447,647; 2332,695;  244,988;    0,000
448,235; 2359,126;  250,613;    0,000
448,823; 2371,320;  249,174;    0,000
449,411; 2393,405;  252,970;    0,000
449,998; 2406,396;  248,784;    0,000
450,586; 2428,402;  247,208;    0,000
451,173; 2451,267;  250,824;    0,000
451,761; 2476,184;  250,938;    0,000
452,349; 2498,530;  250,993;    0,000
452,936; 2531,655;  254,525;    0,000
453,524; 2555,361;  252,976;    0,000
454,111; 2591,446;  255,591;    0,000
454,698; 2623,295;  258,294;    0,000
455,286; 2655,844;  260,011;    0,000
455,873; 2677,221;  261,239;    0,000
456,461; 2707,991;  262,133;    0,000
457,048; 2728,577;  258,698;    0,000
457,635; 2760,285;  262,088;    0,000
458,222; 2792,510;  263,287;    0,000
458,810; 2821,955;  266,463;    0,000
459,397; 2841,210;  257,990;    0,000
459,984; 2875,500;  260,569;    0,000
460,571; 2905,743;  256,247;    0,000
461,158; 2939,831;  253,638;    0,000
461,745; 2974,362;  251,734;    0,000
462,332; 3012,479;  250,932;    0,000
462,919; 3054,418;  248,508;    0,000
463,506; 3112,344;  258,477;    0,000
464,093; 3159,623;  255,464;    0,000
464,680; 3202,925;  257,617;    0,000
465,267; 3256,313;  263,426;    0,000
465,853; 3303,718;  260,970;    0,000
466,440; 3347,046;  262,505;    0,000
467,027; 3396,417;  263,808;    0,000
467,614; 3439,737;  259,329;    0,000
468,200; 3491,876;  263,092;    0,000
468,787; 3548,054;  261,737;    0,000
469,374; 3598,444;  260,891;    0,000
469,960; 3651,532;  263,888;    0,000
470,547; 3710,216;  262,031;    0,000
471,133; 3759,848;  257,284;    0,000
471,720; 3812,782;  256,917;    0,000
472,306; 3870,637;  257,644;    0,000
472,893; 3925,094;  258,089;    0,000
473,479; 3982,910;  261,826;    0,000
474,065; 4039,949;  260,896;    0,000
474,652; 4103,443;  262,724;    0,000
475,238; 4164,783;  265,230;    0,000
475,824; 4223,118;  260,808;    0,000
476,410; 4282,052;  262,634;    0,000
476,997; 4341,929;  264,502;    0,000
477,583; 4402,097;  260,916;    0,000
478,169; 4469,865;  261,974;    0,000
478,755; 4530,445;  262,301;    0,000
479,341; 4581,198;  258,638;    0,000
479,927; 4639,233;  259,911;    0,000
480,513; 4698,242;  255,849;    0,000
481,099; 4748,368;  253,465;    0,000
481,685; 4802,947;  253,179;    0,000
482,271; 4856,896;  253,007;    0,000
482,857; 4905,536;  246,490;    0,000
483,443; 4976,264;  252,079;    0,000
484,028; 5030,109;  247,732;    0,000
484,614; 5076,961;  247,765;    0,000
485,200; 5136,317;  243,439;    0,000
485,786; 5196,180;  240,957;    0,000
486,371; 5251,506;  242,400;    0,000
486,957; 5312,336;  246,578;    0,000
487,543; 5364,679;  246,197;    0,000
488,128; 5425,120;  250,206;    0,000
488,714; 5487,384;  251,568;    0,000
489,299; 5545,757;  259,992;    0,000
489,885; 5595,013;  258,537;    0,000
490,470; 5647,649;  257,390;    0,000
491,055; 5679,729;  254,111;    0,000
491,641; 5724,239;  255,055;    0,000
492,226; 5777,694;  260,389;    0,000
492,811; 5810,907;  254,750;    0,000
493,397; 5845,586;  254,919;    0,000
493,982; 5881,014;  256,648;    0,000
494,567; 5915,609;  256,162;    0,000
495,152; 5959,155;  258,532;    0,000
495,738; 5981,490;  254,086;    0,000
496,323; 6005,254;  251,843;    0,000
496,908; 6042,455;  254,065;    0,000
497,493; 6073,278;  250,812;    0,000
498,078; 6101,424;  251,709;    0,000
498,663; 6118,761;  250,125;    0,000
499,248; 6140,248;  248,506;    0,000
499,833; 6168,587;  247,788;    0,000
500,417; 6177,000;  242,695;    0,000
501,002; 6195,564;  242,193;    0,000
501,587; 6206,681;  238,914;    0,000
502,172; 6225,406;  239,588;    0,000
502,757; 6253,918;  238,194;    0,000
503,341; 6277,624;  241,729;    0,000
503,926; 6286,533;  240,716;    0,000
504,511; 6305,981;  240,903;    0,000
505,095; 6325,067;  248,322;    0,000
505,680; 6337,302;  250,122;    0,000
506,264; 6359,250;  257,819;    0,000
506,849; 6348,093;  251,368;    0,000
507,433; 6361,544;  253,752;    0,000
508,018; 6372,120;  257,965;    0,000
508,602; 6385,330;  261,651;    0,000
509,186; 6393,095;  259,215;    0,000
509,771; 6399,325;  256,574;    0,000
510,355; 6404,953;  252,093;    0,000
510,939; 6418,487;  255,325;    0,000
511,524; 6427,759;  254,618;    0,000
512,108; 6444,902;  252,347;    0,000
512,692; 6457,801;  253,454;    0,000
513,276; 6469,893;  246,569;    0,000
513,860; 6495,474;  251,344;    0,000
514,444; 6506,638;  245,930;    0,000
515,028; 6531,825;  250,616;    0,000
515,612; 6538,769;  245,847;    0,000
516,196; 6560,619;  246,873;    0,000
516,780; 6578,042;  247,062;    0,000
517,364; 6583,300;  249,719;    0,000
517,948; 6605,790;  250,687;    0,000
518,532; 6615,452;  254,527;    0,000
519,115; 6623,312;  251,718;    0,000
519,699; 6649,396;  259,501;    0,000
520,283; 6660,277;  261,003;    0,000
520,867; 6676,584;  260,760;    0,000
521,450; 6704,441;  261,295;    0,000
522,034; 6712,656;  261,988;    0,000
522,617; 6724,754;  262,194;    0,000
523,201; 6742,563;  265,138;    0,000
523,784; 6747,624;  258,227;    0,000
524,368; 6762,836;  257,385;    0,000
524,951; 6782,330;  258,779;    0,000
525,535; 6793,509;  259,987;    0,000
526,118; 6817,069;  259,487;    0,000
526,702; 6853,154;  257,499;    0,000
527,285; 6893,110;  261,842;    0,000
527,868; 6926,323;  262,851;    0,000
528,451; 6965,942;  263,683;    0,000
529,035; 7000,359;  262,356;    0,000
529,618; 7030,624;  261,786;    0,000
530,201; 7065,906;  262,815;    0,000
530,784; 7090,123;  263,076;    0,000
531,367; 7120,901;  263,668;    0,000
531,950; 7143,833;  263,956;    0,000
532,533; 7164,667;  266,343;    0,000
533,116; 7195,149;  272,031;    0,000
533,699; 7231,046;  270,042;    0,000
534,282; 7256,879;  265,975;    0,000
534,865; 7293,422;  265,056;    0,000
535,448; 7324,748;  259,457;    0,000
536,030; 7371,102;  260,227;    0,000
536,613; 7425,103;  258,261;    0,000
537,196; 7466,468;  250,764;    0,000
537,778; 7527,411;  253,173;    0,000
538,361; 7592,554;  255,563;    0,000
538,944; 7651,423;  257,692;    0,000
539,526; 7717,598;  264,423;    0,000
540,109; 7794,777;  267,570;    0,000
540,691; 7855,813;  267,620;    0,000
541,274; 7942,913;  271,078;    0,000
541,856; 8012,682;  271,170;    0,000
542,439; 8090,047;  275,525;    0,000
543,021; 8163,688;  273,547;    0,000
543,603; 8249,711;  272,220;    0,000
544,186; 8325,054;  268,326;    0,000
544,768; 8402,088;  270,325;    0,000
545,350; 8464,981;  269,367;    0,000
545,932; 8536,463;  268,234;    0,000
546,515; 8601,085;  265,942;    0,000
547,097; 8687,282;  265,698;    0,000
547,679; 8760,672;  267,069;    0,000
548,261; 8855,047;  271,534;    0,000
548,843; 8945,544;  269,930;    0,000
549,425; 9029,531;  269,030;    0,000
550,007; 9125,019;  271,009;    0,000
550,589; 9221,054;  270,362;    0,000
551,171; 9306,354;  270,839;    0,000
551,752; 9388,546;  265,105;    0,000
552,334; 9460,907;  260,576;    0,000
552,916; 9541,553;  261,238;    0,000
553,498; 9625,769;  260,454;    0,000
554,079; 9714,418;  256,369;    0,000
554,661; 9810,177;  255,012;    0,000
555,243; 9914,357;  255,472;    0,000
555,824;10018,978;  255,996;    0,000
556,406;10116,852;  254,216;    0,000
556,987;10226,325;  251,841;    0,000
557,569;10332,966;  251,488;    0,000
558,150;10440,944;  256,323;    0,000
558,732;10559,069;  259,544;    0,000
559,313;10676,732;  259,289;    0,000
559,894;10788,213;  257,912;    0,000
560,476;10906,973;  258,311;    0,000
561,057;11022,017;  258,022;    0,000
561,638;11145,869;  261,086;    0,000
562,219;11250,238;  254,565;    0,000
562,801;11346,591;  252,044;    0,000
563,382;11458,950;  252,728;    0,000
563,963;11580,334;  255,558;    0,000
564,544;11704,249;  254,343;    0,000
565,125;11823,419;  251,563;    0,000
565,706;11944,820;  252,219;    0,000
566,287;12081,348;  253,565;    0,000
566,868;12212,810;  250,874;    0,000
567,449;12329,449;  251,190;    0,000
568,030;12444,709;  248,971;    0,000
568,610;12561,071;  251,542;    0,000
569,191;12704,145;  254,743;    0,000
569,772;12832,574;  252,371;    0,000
570,353;12960,146;  250,584;    0,000
570,933;13104,818;  251,704;    0,000
571,514;13250,315;  248,239;    0,000
572,094;13387,358;  247,208;    0,000
572,675;13524,724;  244,184;    0,000
573,256;13650,599;  246,226;    0,000
573,836;13797,944;  243,062;    0,000
574,417;13946,891;  245,329;    0,000
574,997;14110,797;  250,444;    0,000
575,577;14246,152;  252,240;    0,000
576,158;14407,654;  255,950;    0,000
576,738;14569,276;  261,059;    0,000
577,318;14731,747;  260,621;    0,000
577,898;14891,927;  264,233;    0,000
578,479;15052,294;  264,338;    0,000
579,059;15163,646;  259,650;    0,000
579,639;15324,206;  260,547;    0,000
580,219;15474,177;  258,823;    0,000
580,799;15631,671;  254,051;    0,000
581,379;15783,172;  249,415;    0,000
581,959;15927,068;  247,527;    0,000
582,539;16072,096;  249,237;    0,000
583,119;16232,189;  247,717;    0,000
583,699;16370,859;  247,045;    0,000
584,279;16510,148;  245,597;    0,000
584,859;16646,145;  250,336;    0,000
585,438;16783,918;  251,422;    0,000
586,018;16920,967;  251,537;    0,000
586,598;17068,818;  250,061;    0,000
587,177;17224,111;  250,660;    0,000
587,757;17358,279;  251,752;    0,000
588,337;17491,211;  253,612;    0,000
588,916;17627,688;  252,747;    0,000
589,496;17741,516;  251,183;    0,000
590,075;17868,459;  254,184;    0,000
590,654;17974,281;  253,285;    0,000
591,234;18064,406;  253,104;    0,000
591,813;18187,604;  253,109;    0,000
592,393;18300,891;  250,467;    0,000
592,972;18421,211;  248,901;    0,000
593,551;18553,395;  253,295;    0,000
594,130;18664,406;  252,929;    0,000
594,710;18774,959;  256,140;    0,000
595,289;18890,824;  256,350;    0,000
595,868;18985,875;  254,909;    0,000
596,447;19110,283;  257,732;    0,000
597,026;19178,576;  259,218;    0,000
597,605;19252,242;  259,170;    0,000
598,184;19321,496;  253,643;    0,000
598,763;19409,590;  253,969;    0,000
599,342;19491,963;  254,811;    0,000
599,920;19556,340;  254,227;    0,000
600,499;19604,717;  257,179;    0,000
601,078;19661,131;  254,611;    0,000
601,657;19691,301;  254,015;    0,000
602,236;19730,143;  258,225;    0,000
602,814;19748,363;  255,697;    0,000
603,393;19767,158;  254,089;    0,000
603,971;19801,902;  257,703;    0,000
604,550;19822,947;  255,885;    0,000
605,128;19855,113;  255,768;    0,000
605,707;19908,301;  258,010;    0,000
606,285;19980,313;  256,517;    0,000
606,864;20030,570;  259,545;    0,000
607,442;20103,049;  261,543;    0,000
608,020;20140,490;  262,527;    0,000
608,599;20188,998;  261,153;    0,000
609,177;20280,381;  267,088;    0,000
609,755;20364,814;  262,899;    0,000
610,333;20422,256;  260,668;    0,000
610,912;20504,340;  261,503;    0,000
611,490;20557,381;  261,456;    0,000
612,068;20642,834;  257,011;    0,000
612,646;20715,609;  259,401;    0,000
613,224;20759,271;  258,192;    0,000
613,802;20791,582;  259,362;    0,000
614,380;20821,686;  262,417;    0,000
614,958;20849,738;  261,604;    0,000
615,535;20877,502;  259,556;    0,000
616,113;20897,646;  263,270;    0,000
616,691;20896,775;  260,499;    0,000
617,269;20897,693;  257,929;    0,000
617,846;20891,988;  258,597;    0,000
618,424;20887,221;  257,153;    0,000
619,002;20860,459;  257,412;    0,000
619,579;20843,348;  258,127;    0,000
620,157;20804,172;  259,895;    0,000
620,734;20777,484;  263,295;    0,000
621,312;20744,061;  263,716;    0,000
621,889;20717,193;  264,051;    0,000
622,467;20694,553;  264,926;    0,000
623,044;20689,691;  265,122;    0,000
623,621;20674,002;  266,501;    0,000
624,198;20686,973;  262,823;    0,000
624,776;20705,240;  259,284;    0,000
625,353;20729,121;  258,854;    0,000
625,930;20759,158;  258,825;    0,000
626,507;20799,074;  260,944;    0,000
627,084;20841,496;  259,324;    0,000
627,661;20888,703;  257,543;    0,000
628,238;20933,141;  258,200;    0,000
628,815;20988,541;  258,318;    0,000
629,392;21032,443;  257,186;    0,000
629,969;21095,969;  258,527;    0,000
630,546;21143,969;  257,854;    0,000
631,123;21171,666;  259,866;    0,000
631,700;21205,039;  262,100;    0,000
632,276;21242,807;  261,257;    0,000
632,853;21259,289;  265,053;    0,000
633,430;21272,795;  268,348;    0,000
634,006;21256,055;  268,139;    0,000
634,583;21261,207;  271,242;    0,000
635,160;21259,797;  271,058;    0,000
635,736;21254,602;  270,849;    0,000
636,313;21257,176;  269,367;    0,000
636,889;21269,717;  264,866;    0,000
637,466;21272,977;  266,076;    0,000
638,042;21309,020;  265,493;    0,000
638,618;21324,910;  260,950;    0,000
639,194;21346,594;  257,652;    0,000
639,771;21394,254;  254,357;    0,000
640,347;21416,275;  258,360;    0,000
640,923;21425,555;  258,692;    0,000
641,499;21435,920;  256,268;    0,000
642,075;21457,057;  255,886;    0,000
642,651;21485,764;  257,593;    0,000
643,227;21534,686;  260,449;    0,000
643,803;21549,479;  265,937;    0,000
644,379;21563,742;  264,418;    0,000
644,955;21572,979;  264,528;    0,000
645,531;21610,301;  266,136;    0,000
646,107;21619,793;  266,310;    0,000
646,683;21621,500;  261,630;    0,000
647,259;21594,779;  260,637;    0,000
647,834;21580,900;  258,141;    0,000
648,410;21574,609;  253,875;    0,000
648,986;21572,373;  253,129;    0,000
649,561;21573,010;  254,212;    0,000
650,137;21550,660;  252,304;    0,000
650,712;21515,510;  252,114;    0,000
651,288;21526,932;  253,099;    0,000
651,863;21540,439;  253,534;    0,000
652,439;21572,760;  253,932;    0,000
653,014;21606,281;  255,795;    0,000
653,589;21635,918;  250,301;    0,000
654,165;21682,125;  250,942;    0,000
654,740;21743,719;  252,702;    0,000
655,315;21767,740;  249,966;    0,000
655,890;21829,547;  252,999;    0,000
656,465;21858,740;  253,017;    0,000
657,040;21899,576;  248,400;    0,000
657,616;21932,770;  246,150;    0,000
658,191;21987,434;  247,818;    0,000
658,766;22047,941;  249,874;    0,000
659,340;22128,436;  248,099;    0,000
659,915;22180,613;  246,527;    0,000
660,490;22248,693;  245,980;    0,000
661,065;22311,771;  247,975;    0,000
661,640;22379,422;  247,348;    0,000
662,215;22433,586;  245,919;    0,000
662,789;22483,922;  246,881;    0,000
663,364;22532,172;  248,277;    0,000
663,939;22583,865;  243,695;    0,000
664,513;22642,459;  246,045;    0,000
665,088;22699,324;  245,948;    0,000
665,662;22746,416;  249,638;    0,000
666,237;22812,252;  251,479;    0,000
666,811;22882,846;  246,859;    0,000
667,385;22945,482;  248,055;    0,000
667,960;23007,689;  247,302;    0,000
668,534;23087,168;  245,849;    0,000
669,108;23166,590;  245,342;    0,000
669,683;23264,340;  242,561;    0,000
670,257;23342,318;  238,549;    0,000
670,831;23424,727;  237,278;    0,000
671,405;23529,791;  236,535;    0,000
671,979;23625,598;  235,432;    0,000
672,553;23714,277;  234,939;    0,000
673,127;23825,699;  236,778;    0,000
673,701;23928,477;  234,465;    0,000
674,275;24048,855;  234,272;    0,000
674,849;24184,793;  236,680;    0,000
675,423;24289,328;  235,712;    0,000
675,997;24423,264;  237,219;    0,000
676,570;24532,043;  236,931;    0,000
677,144;24624,350;  234,048;    0,000
677,718;24724,957;  239,117;    0,000
678,292;24805,123;  241,727;    0,000
678,865;24864,814;  241,063;    0,000
679,439;24939,766;  242,267;    0,000
680,012;24982,217;  241,816;    0,000
680,586;25032,695;  241,838;    0,000
681,159;25104,916;  242,501;    0,000
681,733;25147,182;  242,400;    0,000
682,306;25201,518;  239,225;    0,000
682,879;25257,553;  240,657;    0,000
683,453;25324,160;  240,089;    0,000
684,026;25418,639;  242,606;    0,000
684,599;25507,975;  242,043;    0,000
685,172;25581,811;  244,760;    0,000
685,745;25675,504;  244,524;    0,000
686,318;25749,896;  245,944;    0,000
686,891;25839,305;  244,057;    0,000
687,464;25913,670;  245,022;    0,000
688,037;25968,277;  244,939;    0,000
688,610;26035,912;  243,183;    0,000
689,183;26112,549;  242,404;    0,000
689,756;26189,514;  242,387;    0,000
690,329;26279,264;  240,662;    0,000
690,902;26360,129;  243,891;    0,000
691,474;26452,793;  241,976;    0,000
692,047;26591,301;  238,492;    0,000
692,620;26728,293;  243,035;    0,000
693,192;26838,529;  242,863;    0,000
693,765;26931,707;  242,311;    0,000
694,337;27004,629;  241,948;    0,000
694,910;27117,566;  242,407;    0,000
695,482;27211,916;  244,929;    0,000
696,055;27290,424;  246,681;    0,000
696,627;27369,389;  247,162;    0,000
697,199;27454,852;  241,539;    0,000
697,772;27549,303;  239,887;    0,000
698,344;27696,939;  240,238;    0,000
698,916;27802,531;  235,678;    0,000
699,488;27918,410;  233,481;    0,000
700,060;28016,189;  232,502;    0,000
700,633;28108,139;  229,934;    0,000
701,205;28210,219;  233,210;    0,000
701,777;28290,396;  236,673;    0,000
702,349;28364,748;  237,645;    0,000
702,920;28412,855;  239,883;    0,000
703,492;28465,934;  238,511;    0,000
704,064;28507,027;  237,125;    0,000
704,636;28582,920;  237,060;    0,000
705,208;28677,184;  234,116;    0,000
705,779;28815,006;  230,690;    0,000
706,351;28939,441;  230,592;    0,000
706,923;29080,650;  226,774;    0,000
707,494;29249,656;  228,590;    0,000
708,066;29427,965;  228,357;    0,000
708,638;29586,801;  226,571;    0,000
709,209;29753,908;  229,691;    0,000
709,780;29904,016;  228,023;    0,000
710,352;30055,123;  225,869;    0,000
710,923;30215,902;  230,893;    0,000
711,494;30345,822;  227,040;    0,000
712,066;30481,846;  230,141;    0,000
712,637;30609,639;  228,793;    0,000
713,208;30734,760;  229,881;    0,000
713,779;30858,609;  232,612;    0,000
714,350;30975,432;  234,140;    0,000
714,922;31061,854;  232,259;    0,000
715,492;31173,303;  234,523;    0,000
716,064;31261,311;  232,506;    0,000
716,634;31358,762;  232,442;    0,000
717,205;31460,227;  235,004;    0,000
717,776;31547,748;  234,572;    0,000
718,347;31633,555;  236,812;    0,000
718,918;31758,348;  237,204;    0,000
719,489;31834,428;  238,098;    0,000
720,059;31922,605;  238,865;    0,000
720,630;32004,385;  240,833;    0,000
721,201;32063,406;  238,909;    0,000
721,771;32163,842;  240,538;    0,000
722,342;32275,264;  241,133;    0,000
722,912;32364,643;  239,642;    0,000
723,483;32504,936;  239,604;    0,000
724,053;32645,344;  241,219;    0,000
724,623;32792,449;  239,823;    0,000
725,194;32953,715;  239,468;    0,000
725,764;33103,566;  239,967;    0,000
726,334;33228,074;  238,789;    0,000
726,904;33351,238;  235,993;    0,000
727,475;33480,500;  239,583;    0,000
728,045;33583,039;  237,339;    0,000
728,615;33713,844;  237,634;    0,000
729,185;33855,211;  238,833;    0,000
729,755;33954,016;  234,822;    0,000
730,325;34072,523;  231,614;    0,000
730,895;34229,816;  234,866;    0,000
731,465;34308,313;  230,298;    0,000
732,034;34434,746;  231,329;    0,000
732,604;34537,711;  235,100;    0,000
733,174;34609,176;  232,612;    0,000
733,744;34733,082;  234,120;    0,000
734,313;34864,164;  239,443;    0,000
734,883;34972,484;  236,824;    0,000
735,453;35175,004;  239,424;    0,000
736,022;35286,883;  237,785;    0,000
736,592;35420,578;  237,104;    0,000
737,161;35568,555;  240,513;    0,000
737,731;35706,148;  242,932;    0,000
738,300;35811,559;  240,007;    0,000
738,869;35889,836;  241,203;    0,000
739,439;35924,129;  237,089;    0,000
740,008;36006,449;  239,286;    0,000
740,577;36050,102;  237,025;    0,000
741,146;36115,906;  235,741;    0,000
741,715;36190,773;  232,914;    0,000
742,284;36250,293;  234,189;    0,000
742,853;36333,301;  235,525;    0,000
743,422;36420,023;  238,814;    0,000
743,991;36505,672;  235,422;    0,000
744,560;36622,996;  236,225;    0,000
745,129;36729,719;  234,873;    0,000
745,698;36837,711;  235,886;    0,000
746,267;36984,203;  235,688;    0,000
746,836;37129,141;  233,993;    0,000
747,404;37245,332;  236,829;    0,000
747,973;37374,082;  240,615;    0,000
748,542;37461,848;  240,500;    0,000
749,110;37525,641;  242,198;    0,000
749,679;37549,777;  242,237;    0,000
750,247;37550,340;  238,475;    0,000
750,816;37578,535;  240,612;    0,000
751,384;37588,828;  235,798;    0,000
751,952;37603,293;  234,616;    0,000
752,521;37628,344;  233,754;    0,000
753,089;37657,191;  231,118;    0,000
753,657;37700,785;  231,199;    0,000
754,225;37762,637;  234,364;    0,000
754,794;37767,043;  233,773;    0,000
755,362;37819,777;  235,392;    0,000
755,930;37889,859;  238,381;    0,000
756,498;37935,352;  237,676;    0,000
757,066;37946,887;  238,056;    0,000
757,634;37974,539;  239,277;    0,000
758,202;37958,445;  239,633;    0,000
758,769;37973,438;  242,254;    0,000
759,337;37925,215;  242,770;    0,000
759,905;37837,438;  237,417;    0,000
760,473;37835,145;  238,949;    0,000
761,041;37817,023;  236,451;    0,000
761,608;37753,902;  233,946;    0,000
762,176;37753,426;  234,538;    0,000
762,743;37746,762;  231,104;    0,000
763,311;37772,324;  227,092;    0,000
763,878;37805,563;  228,504;    0,000
764,446;37790,598;  225,817;    0,000
765,013;37812,449;  228,188;    0,000
765,581;37843,539;  229,577;    0,000
766,148;37851,832;  228,399;    0,000
766,715;37869,543;  228,065;    0,000
767,282;37884,949;  232,754;    0,000
767,849;37867,199;  231,726;    0,000
768,417;37836,879;  233,958;    0,000
768,984;37780,898;  230,974;    0,000
769,551;37704,949;  230,177;    0,000
770,118;37619,172;  227,122;    0,000
770,685;37476,492;  225,045;    0,000
771,252;37324,516;  220,230;    0,000
771,819;37235,352;  221,265;    0,000
772,385;37116,914;  218,347;    0,000
772,952;37022,508;  217,637;    0,000
773,519;36950,402;  216,848;    0,000
774,086;36863,766;  217,023;    0,000
774,652;36810,574;  217,362;    0,000
775,219;36768,367;  218,477;    0,000
775,786;36707,445;  220,400;    0,000
776,352;36660,523;  221,159;    0,000
776,919;36592,816;  230,688;    0,000
777,485;36524,012;  232,504;    0,000
778,051;36483,832;  235,978;    0,000
778,618;36402,910;  236,768;    0,000
779,184;36352,789;  233,546;    0,000
779,750;36270,012;  232,536;    0,000
780,317;36211,504;  234,851;    0,000
780,883;36161,125;  229,439;    0,000
781,449;36073,504;  228,476;    0,000
782,015;35967,297;  229,833;    0,000
782,581;35879,434;  232,019;    0,000
783,147;35809,527;  236,782;    0,000
783,713;35712,691;  238,406;    0,000
784,279;35590,473;  241,429;    0,000
784,845;35441,793;  240,041;    0,000
785,411;35378,785;  243,343;    0,000
785,977;35287,664;  238,812;    0,000
786,542;35237,516;  240,275;    0,000
787,108;35107,352;  240,417;    0,000
787,674;35038,730;  239,449;    0,000
788,239;34975,551;  237,405;    0,000
788,805;34925,414;  238,727;    0,000
789,371;34831,793;  237,589;    0,000
789,936;34754,359;  238,830;    0,000
790,501;34660,125;  238,814;    0,000
791,067;34581,387;  237,998;    0,000
791,632;34471,980;  234,741;    0,000
792,198;34382,375;  235,129;    0,000
792,763;34279,438;  233,158;    0,000
793,328;34207,031;  231,396;    0,000
793,893;34119,469;  228,522;    0,000
794,458;34043,848;  225,048;    0,000
795,024;33982,238;  225,206;    0,000
795,589;33933,320;  225,859;    0,000
796,154;33843,711;  223,248;    0,000
796,719;33787,148;  223,590;    0,000
797,284;33694,828;  223,660;    0,000
797,848;33641,422;  224,112;    0,000
798,413;33545,227;  226,977;    0,000
798,978;33453,320;  229,005;    0,000
799,543;33342,613;  228,090;    0,000
800,108;33277,820;  230,094;    0,000
800,672;33193,328;  231,323;    0,000
801,237;33121,094;  231,008;    0,000
801,801;33031,859;  235,200;    0,000
802,366;32974,793;  234,892;    0,000
802,930;32869,887;  232,145;    0,000
803,495;32749,137;  238,275;    0,000
804,059;32604,416;  238,431;    0,000
804,624;32437,094;  237,756;    0,000
805,188;32272,230;  238,060;    0,000
805,752;32100,281;  236,802;    0,000
806,317;31925,432;  234,891;    0,000
806,881;31795,768;  236,899;    0,000
807,445;31706,617;  230,858;    0,000
808,009;31612,711;  231,987;    0,000
808,573;31558,975;  233,258;    0,000
809,137;31485,496;  233,104;    0,000
809,701;31431,404;  233,049;    0,000
810,265;31368,625;  231,842;    0,000
810,829;31272,420;  227,584;    0,000
811,393;31157,455;  228,269;    0,000
811,956;31039,006;  224,552;    0,000
812,520;30928,428;  221,271;    0,000
813,084;30813,605;  217,529;    0,000
813,647;30692,355;  215,274;    0,000
814,211;30573,850;  216,708;    0,000
814,775;30508,441;  217,350;    0,000
815,338;30421,393;  219,455;    0,000
815,902;30320,672;  219,377;    0,000
816,465;30205,180;  221,132;    0,000
817,029;30108,100;  224,254;    0,000
817,592;30006,494;  222,554;    0,000
818,155;29898,287;  226,002;    0,000
818,718;29742,322;  227,508;    0,000
819,282;29628,402;  225,424;    0,000
819,845;29529,510;  228,889;    0,000
820,408;29397,701;  229,960;    0,000
820,971;29256,023;  231,107;    0,000
821,534;29105,402;  236,602;    0,000
822,097;28959,182;  233,057;    0,000
822,660;28848,561;  234,239;    0,000
823,223;28714,311;  233,434;    0,000
823,786;28551,232;  230,461;    0,000
824,349;28407,354;  228,685;    0,000
824,911;28249,662;  223,821;    0,000
825,474;28095,111;  222,253;    0,000
826,037;27972,334;  224,450;    0,000
826,599;27838,283;  226,851;    0,000
827,162;27710,576;  227,611;    0,000
827,724;27624,055;  226,382;    0,000
828,287;27565,063;  228,899;    0,000
828,849;27488,627;  231,111;    0,000
829,412;27399,764;  231,830;    0,000
829,974;27273,242;  231,897;    0,000
830,536;27127,035;  227,686;    0,000
831,099;26990,057;  226,495;    0,000
831,661;26861,221;  229,581;    0,000
832,223;26728,129;  228,140;    0,000
832,785;26626,936;  226,943;    0,000
833,347;26555,602;  223,548;    0,000
833,909;26484,064;  221,826;    0,000
834,471;26423,359;  225,598;    0,000
835,033;26358,266;  226,557;    0,000
835,595;26268,230;  227,485;    0,000
836,157;26157,053;  229,588;    0,000
836,719;26027,131;  230,188;    0,000
837,281;25891,480;  230,429;    0,000
837,842;25786,803;  233,375;    0,000
838,404;25702,381;  230,963;    0,000
838,966;25623,789;  229,123;    0,000
839,527;25554,082;  223,262;    0,000
840,089;25482,932;  217,217;    0,000
840,650;25443,240;  217,485;    0,000
841,212;25404,646;  217,210;    0,000
841,773;25321,641;  212,860;    0,000
842,335;25235,734;  209,262;    0,000
842,896;25126,697;  209,367;    0,000
843,457;25031,635;  212,416;    0,000
844,018;24944,256;  218,072;    0,000
844,580;24802,078;  218,978;    0,000
845,141;24636,170;  217,723;    0,000
845,702;24512,320;  218,589;    0,000
846,263;24374,643;  221,644;    0,000
846,824;24244,750;  220,837;    0,000
847,385;24110,957;  220,625;    0,000
847,946;23983,309;  215,786;    0,000
848,507;23901,744;  218,610;    0,000
849,068;23824,793;  216,085;    0,000
849,628;23728,059;  211,449;    0,000
850,189;23622,895;  205,528;    0,000
850,750;23544,359;  206,811;    0,000
851,310;23465,951;  204,676;    0,000
851,871;23399,174;  205,028;    0,000
852,432;23327,752;  198,534;    0,000
852,992;23251,531;  203,449;    0,000
853,552;23163,695;  204,902;    0,000
854,113;23089,432;  209,414;    0,000
854,673;23015,982;  208,582;    0,000
855,234;22926,246;  208,415;    0,000
855,794;22831,068;  213,995;    0,000
856,354;22735,076;  213,423;    0,000
856,914;22664,012;  211,564;    0,000
857,474;22591,791;  212,196;    0,000
858,034;22540,170;  212,799;    0,000
858,595;22498,492;  215,144;    0,000
859,155;22450,156;  214,486;    0,000
859,714;22422,035;  209,880;    0,000
860,274;22414,428;  212,705;    0,000
860,834;22382,463;  212,379;    0,000
861,394;22371,357;  212,302;    0,000
861,954;22354,750;  211,598;    0,000
862,514;22300,115;  210,691;    0,000
863,073;22255,922;  213,722;    0,000
863,633;22188,016;  212,891;    0,000
864,192;22106,252;  210,689;    0,000
864,752;22040,559;  209,199;    0,000
865,311;21976,395;  208,288;    0,000
865,871;21910,072;  205,683;    0,000
866,430;21869,994;  204,574;    0,000
866,990;21826,502;  201,914;    0,000
867,549;21779,252;  201,525;    0,000
868,108;21730,246;  203,232;    0,000
868,667;21688,439;  204,611;    0,000
869,227;21634,047;  207,483;    0,000
869,786;21572,453;  209,208;    0,000
870,345;21488,533;  207,517;    0,000
870,904;21408,568;  203,678;    0,000
871,463;21342,934;  202,104;    0,000
872,022;21295,283;  202,946;    0,000
872,581;21246,291;  200,013;    0,000
873,140;21199,826;  194,955;    0,000
873,698;21161,691;  193,143;    0,000
874,257;21155,742;  193,468;    0,000
874,816;21167,412;  194,948;    0,000
875,374;21157,670;  195,803;    0,000
875,933;21129,369;  192,751;    0,000
876,492;21089,955;  195,932;    0,000
877,050;21059,398;  194,929;    0,000
877,609;21026,855;  195,626;    0,000
878,167;20961,727;  192,221;    0,000
878,725;20873,713;  194,023;    0,000
879,284;20822,326;  196,801;    0,000
879,842;20751,598;  194,839;    0,000
880,400;20694,557;  196,182;    0,000
880,958;20632,584;  196,298;    0,000
881,517;20571,213;  197,416;    0,000
882,075;20538,285;  201,511;    0,000
882,633;20507,170;  200,106;    0,000
883,191;20479,570;  199,201;    0,000
883,749;20473,756;  200,656;    0,000
884,307;20446,170;  202,009;    0,000
884,865;20416,027;  204,322;    0,000
885,422;20390,598;  202,072;    0,000
885,980;20363,084;  203,992;    0,000
886,538;20334,955;  205,883;    0,000
887,095;20273,455;  205,609;    0,000
887,653;20223,557;  204,133;    0,000
888,211;20200,598;  205,678;    0,000
888,768;20171,113;  207,231;    0,000
889,326;20156,842;  209,058;    0,000
889,883;20135,770;  207,308;    0,000
890,441;20140,455;  206,746;    0,000
890,998;20157,684;  209,438;    0,000
891,555;20147,041;  215,592;    0,000
892,112;20095,670;  210,616;    0,000
892,670;20074,670;  213,531;    0,000
893,227;20009,170;  211,803;    0,000
893,784;19941,670;  211,318;    0,000
894,341;19850,727;  214,995;    0,000
894,898;19742,355;  211,581;    0,000
895,455;19649,557;  210,065;    0,000
896,012;19583,756;  210,223;    0,000
896,569;19494,398;  207,255;    0,000
897,126;19423,912;  210,205;    0,000
897,682;19356,699;  210,839;    0,000
898,239;19302,570;  208,949;    0,000
898,796;19252,613;  210,133;    0,000
899,352;19197,398;  209,989;    0,000
899,909;19129,613;  211,693;    0,000
900,466;19066,355;  213,306;    0,000
901,022;19009,398;  214,936;    0,000
901,579;18912,514;  214,448;    0,000
902,135;18804,684;  212,922;    0,000
902,691;18705,369;  214,362;    0,000
903,248;18587,955;  213,655;    0,000
903,804;18464,385;  212,333;    0,000
904,360;18333,984;  211,808;    0,000
904,916;18190,242;  209,473;    0,000
905,472;18055,299;  210,672;    0,000
906,028;17944,799;  210,831;    0,000
906,584;17822,885;  208,488;    0,000
907,140;17736,355;  208,052;    0,000
907,696;17673,713;  207,505;    0,000
908,252;17604,484;  206,938;    0,000
908,808;17537,471;  205,415;    0,000
909,364;17479,242;  206,212;    0,000
909,920;17399,398;  207,193;    0,000
910,475;17324,598;  206,481;    0,000
911,031;17220,441;  206,818;    0,000
911,587;17125,412;  204,205;    0,000
912,142;17048,355;  202,702;    0,000
912,698;16976,027;  203,679;    0,000
913,253;16904,285;  199,116;    0,000
913,808;16834,326;  198,301;    0,000
914,364;16761,070;  196,593;    0,000
914,919;16715,627;  199,152;    0,000
915,474;16653,184;  203,879;    0,000
916,030;16594,270;  202,706;    0,000
916,585;16540,498;  202,881;    0,000
917,140;16512,941;  203,733;    0,000
917,695;16471,084;  200,922;    0,000
918,250;16422,014;  202,375;    0,000
918,805;16367,385;  197,023;    0,000
919,360;16298,970;  194,792;    0,000
919,915;16229,284;  197,021;    0,000
920,469;16173,599;  198,139;    0,000
921,024;16093,398;  198,038;    0,000
921,579;16019,527;  200,676;    0,000
922,134;15972,427;  200,002;    0,000
922,688;15908,984;  202,786;    0,000
923,243;15887,885;  205,515;    0,000
923,797;15859,698;  204,035;    0,000
924,352;15800,842;  204,322;    0,000
924,906;15744,299;  205,568;    0,000
925,461;15676,155;  205,309;    0,000
926,015;15603,827;  202,242;    0,000
926,569;15532,441;  200,212;    0,000
927,124;15442,999;  200,593;    0,000
927,678;15359,970;  202,859;    0,000
928,232;15276,627;  202,076;    0,000
928,786;15195,155;  201,123;    0,000
929,340;15134,299;  203,869;    0,000
929,894;15054,155;  205,491;    0,000
930,448;14992,398;  207,492;    0,000
931,002;14949,556;  207,396;    0,000
931,556;14911,198;  205,768;    0,000
932,110;14880,698;  201,841;    0,000
932,663;14848,698;  201,971;    0,000
933,217;14820,342;  200,338;    0,000
933,771;14778,613;  202,885;    0,000
934,324;14739,827;  202,963;    0,000
934,878;14655,642;  198,058;    0,000
935,432;14558,728;  199,585;    0,000
935,985;14445,155;  202,416;    0,000
936,538;14348,398;  204,139;    0,000
937,092;14251,470;  202,976;    0,000
937,645;14179,398;  200,878;    0,000
938,198;14097,327;  202,681;    0,000
938,752;14060,056;  208,393;    0,000
939,305;14014,784;  208,148;    0,000
939,858;14003,228;  208,961;    0,000
940,411;13958,213;  210,145;    0,000
940,964;13906,870;  210,751;    0,000
941,517;13862,613;  213,065;    0,000
942,070;13820,099;  212,641;    0,000
942,623;13748,842;  209,458;    0,000
943,176;13687,284;  209,573;    0,000
943,728;13587,728;  208,258;    0,000
944,281;13512,956;  204,818;    0,000
944,834;13444,599;  205,989;    0,000
945,387;13374,084;  203,591;    0,000
945,939;13314,913;  201,319;    0,000
946,492;13249,070;  201,376;    0,000
947,044;13178,499;  200,701;    0,000
947,597;13140,142;  200,166;    0,000
948,149;13082,355;  200,548;    0,000
948,701;13038,842;  199,722;    0,000
949,254;13021,113;  202,352;    0,000
949,806;12994,041;  203,593;    0,000
950,358;12977,470;  205,059;    0,000
950,910;12939,070;  204,118;    0,000
951,462;12882,584;  202,639;    0,000
952,014;12841,956;  204,869;    0,000
952,566;12779,527;  202,698;    0,000
953,118;12689,627;  201,818;    0,000
953,670;12586,613;  199,145;    0,000
954,222;12495,970;  196,979;    0,000
954,774;12427,284;  196,936;    0,000
955,326;12365,385;  197,469;    0,000
955,877;12313,913;  196,769;    0,000
956,429;12274,599;  200,098;    0,000
956,981;12231,342;  200,093;    0,000
957,532;12183,441;  201,002;    0,000
958,084;12131,155;  201,536;    0,000
958,635;12078,355;  204,051;    0,000
959,187;12028,842;  206,759;    0,000
959,738;11959,827;  207,136;    0,000
960,289;11875,284;  207,635;    0,000
960,840;11789,685;  205,733;    0,000
961,392;11721,827;  209,435;    0,000
961,943;11635,456;  205,886;    0,000
962,494;11547,970;  204,815;    0,000
963,045;11472,813;  202,815;    0,000
963,596;11410,970;  202,466;    0,000
964,147;11361,713;  199,959;    0,000
964,698;11299,599;  200,381;    0,000
965,249;11235,784;  198,676;    0,000
965,800;11175,770;  198,108;    0,000
966,350;11123,470;  199,271;    0,000
966,901;11056,599;  197,022;    0,000
967,452;10983,142;  194,105;    0,000
968,002;10887,913;  194,813;    0,000
968,553;10827,627;  195,785;    0,000
969,103;10754,784;  194,262;    0,000
969,654;10689,270;  197,573;    0,000
970,204;10599,842;  193,316;    0,000
970,755;10528,013;  198,635;    0,000
971,305;10454,999;  196,475;    0,000
971,855;10398,013;  197,563;    0,000
972,405;10333,185;  198,476;    0,000
972,956;10281,556;  198,329;    0,000
973,506;10209,770;  195,188;    0,000
974,056;10167,084;  199,055;    0,000
974,606;10117,142;  196,771;    0,000
975,156;10070,385;  202,006;    0,000
975,706;10015,198;  200,901;    0,000
976,255; 9950,170;  198,085;    0,000
976,805; 9875,756;  194,115;    0,000
977,355; 9819,642;  193,511;    0,000
977,905; 9764,513;  190,249;    0,000
978,454; 9694,527;  186,708;    0,000
979,004; 9637,784;  186,169;    0,000
979,554; 9578,084;  181,323;    0,000
980,103; 9520,927;  183,672;    0,000
980,653; 9464,084;  187,109;    0,000
981,202; 9415,155;  189,989;    0,000
981,751; 9349,155;  190,483;    0,000
982,301; 9285,784;  192,135;    0,000
982,850; 9215,770;  192,056;    0,000
983,399; 9166,813;  195,139;    0,000
983,948; 9101,570;  192,845;    0,000
984,497; 9056,855;  192,408;    0,000
985,047; 8998,441;  192,701;    0,000
985,596; 8944,613;  190,479;    0,000
986,144; 8910,327;  191,313;    0,000
986,693; 8875,556;  190,216;    0,000
987,242; 8831,813;  189,391;    0,000
987,791; 8807,999;  187,878;    0,000
988,340; 8765,741;  187,055;    0,000
988,888; 8722,741;  185,666;    0,000
989,437; 8678,413;  187,833;    0,000
989,986; 8622,170;  187,305;    0,000
990,534; 8568,256;  189,511;    0,000
991,083; 8496,513;  188,602;    0,000
991,631; 8435,427;  194,181;    0,000
992,180; 8355,198;  192,253;    0,000
992,728; 8304,670;  194,729;    0,000
993,276; 8256,642;  194,772;    0,000
993,825; 8205,513;  197,686;    0,000
994,373; 8142,642;  195,889;    0,000
994,921; 8094,241;  198,619;    0,000
995,469; 8015,684;  194,948;    0,000
996,017; 7960,384;  197,799;    0,000
996,565; 7881,313;  195,386;    0,000
997,113; 7799,284;  194,233;    0,000
997,661; 7718,841;  195,701;    0,000
998,209; 7649,870;  193,923;    0,000
998,757; 7581,341;  194,433;    0,000
999,304; 7520,856;  198,521;    0,000
999,852; 7458,213;  198,102;    0,000
1000,400; 7386,213;  200,345;    0,000
1000,947; 7319,499;  202,122;    0,000
1001,495; 7243,956;  199,105;    0,000
1002,042; 7167,770;  201,096;    0,000
1002,590; 7099,227;  201,802;    0,000
1003,137; 7039,556;  201,246;    0,000
1003,684; 6984,542;  205,853;    0,000
1004,232; 6932,941;  205,866;    0,000
1004,779; 6878,241;  204,868;    0,000
1005,326; 6838,613;  204,949;    0,000
1005,873; 6791,056;  205,993;    0,000
1006,420; 6735,027;  208,981;    0,000
1006,967; 6669,513;  203,853;    0,000
1007,514; 6604,341;  200,048;    0,000
1008,061; 6543,798;  198,576;    0,000
1008,608; 6496,013;  200,879;    0,000
1009,155; 6441,656;  203,512;    0,000
1009,702; 6386,084;  200,036;    0,000
1010,248; 6337,984;  197,241;    0,000
1010,795; 6281,941;  199,646;    0,000
1011,342; 6209,699;  203,321;    0,000
1011,888; 6146,398;  207,002;    0,000
1012,435; 6079,042;  205,935;    0,000
1012,981; 6016,499;  205,785;    0,000
1013,528; 5965,999;  210,649;    0,000
1014,074; 5904,784;  211,203;    0,000
1014,620; 5863,756;  214,266;    0,000
1015,166; 5828,199;  213,948;    0,000
1015,713; 5784,199;  213,669;    0,000
1016,259; 5740,170;  212,485;    0,000
1016,805; 5690,827;  208,745;    0,000
1017,351; 5638,756;  208,248;    0,000
1017,897; 5592,199;  205,171;    0,000
1018,443; 5542,327;  201,905;    0,000
1018,989; 5496,642;  198,913;    0,000
1019,535; 5447,656;  195,983;    0,000
1020,080; 5391,770;  196,713;    0,000
1020,626; 5340,927;  199,155;    0,000
1021,172; 5280,827;  196,982;    0,000
1021,717; 5217,284;  196,409;    0,000
1022,263; 5153,542;  199,171;    0,000
1022,809; 5087,713;  199,549;    0,000
1023,354; 5039,527;  204,042;    0,000
1023,900; 4980,927;  200,485;    0,000
1024,445; 4920,927;  197,875;    0,000
1024,990; 4865,142;  198,491;    0,000
1025,536; 4807,513;  199,736;    0,000
1026,081; 4746,427;  196,598;    0,000
1026,626; 4689,999;  195,008;    0,000
1027,171; 4624,827;  190,711;    0,000
1027,716; 4572,898;  195,075;    0,000
1028,261; 4513,099;  194,342;    0,000
1028,806; 4462,113;  195,149;    0,000
1029,351; 4415,984;  194,293;    0,000
1029,896; 4377,113;  198,786;    0,000
1030,441; 4333,441;  198,806;    0,000
1030,985; 4281,798;  198,338;    0,000
1031,530; 4231,227;  196,731;    0,000
1032,075; 4186,956;  196,178;    0,000
1032,619; 4145,084;  200,828;    0,000
1033,164; 4094,427;  198,722;    0,000
1033,708; 4045,141;  196,279;    0,000
1034,253; 3989,156;  195,459;    0,000
1034,797; 3944,570;  196,476;    0,000
1035,341; 3908,213;  196,176;    0,000
1035,886; 3868,499;  198,575;    0,000
1036,430; 3819,184;  193,261;    0,000
1036,974; 3779,727;  199,781;    0,000
1037,518; 3734,184;  198,938;    0,000
1038,062; 3691,441;  199,306;    0,000
1038,606; 3646,599;  199,698;    0,000
1039,150; 3592,141;  197,595;    0,000
1039,694; 3542,984;  198,072;    0,000
1040,238; 3500,184;  197,332;    0,000
1040,782; 3454,170;  192,828;    0,000
1041,326; 3409,513;  194,282;    0,000
1041,869; 3369,413;  197,628;    0,000
1042,413; 3330,099;  198,241;    0,000
1042,957; 3290,127;  202,171;    0,000
1043,500; 3243,656;  200,459;    0,000
1044,044; 3189,599;  201,346;    0,000
1044,587; 3137,141;  201,756;    0,000
1045,130; 3086,170;  202,998;    0,000
1045,674; 3037,299;  200,305;    0,000
1046,217; 2988,813;  202,883;    0,000
1046,760; 2939,999;  201,263;    0,000
1047,304; 2900,356;  201,275;    0,000
1047,847; 2865,827;  202,502;    0,000
1048,390; 2838,184;  204,491;    0,000
1048,933; 2803,913;  203,545;    0,000
1049,476; 2771,684;  206,341;    0,000
1050,019; 2740,198;  205,258;    0,000
1050,562; 2710,698;  206,332;    0,000
1051,104; 2677,241;  208,866;    0,000
1051,647; 2650,370;  212,155;    0,000
1052,190; 2618,184;  215,566;    0,000
1052,732; 2584,370;  213,151;    0,000
1053,275; 2549,756;  209,453;    0,000
1053,818; 2511,027;  207,208;    0,000
1054,360; 2476,184;  207,191;    0,000
1054,902; 2445,384;  209,083;    0,000
1055,445; 2400,099;  203,278;    0,000
1055,987; 2362,899;  202,881;    0,000
1056,530; 2327,127;  204,958;    0,000
1057,072; 2295,484;  206,759;    0,000
1057,614; 2265,641;  203,476;    0,000
1058,156; 2239,927;  206,599;    0,000
1058,698; 2206,284;  203,358;    0,000
1059,240; 2182,856;  206,353;    0,000
1059,782; 2147,213;  203,668;    0,000
1060,324; 2119,956;  203,211;    0,000
1060,866; 2090,156;  205,362;    0,000
1061,408; 2061,741;  209,819;    0,000
1061,949; 2033,527;  209,153;    0,000
1062,491; 2006,127;  209,405;    0,000
1063,033; 1980,727;  209,529;    0,000
1063,574; 1957,684;  208,592;    0,000
1064,116; 1931,427;  206,232;    0,000
1064,657; 1907,299;  205,076;    0,000
1065,199; 1885,727;  207,033;    0,000
1065,740; 1857,699;  206,936;    0,000
1066,281; 1833,099;  209,778;    0,000
1066,823; 1804,627;  205,196;    0,000
1067,364; 1784,327;  208,968;    0,000
1067,905; 1763,484;  213,685;    0,000
1068,446; 1740,827;  212,301;    0,000
1068,987; 1720,670;  210,768;    0,000
1069,528; 1698,513;  209,179;    0,000
1070,069; 1682,027;  211,116;    0,000
1070,610; 1661,570;  212,905;    0,000
1071,151; 1637,670;  208,663;    0,000
1071,692; 1619,141;  206,752;    0,000
1072,232; 1600,613;  205,788;    0,000
1072,773; 1579,727;  204,421;    0,000
1073,314; 1560,613;  203,598;    0,000
1073,854; 1536,970;  200,458;    0,000
1074,395; 1519,884;  200,966;    0,000
1074,935; 1503,699;  202,371;    0,000
1075,476; 1485,270;  200,971;    0,000
1076,016; 1467,156;  202,911;    0,000
1076,556; 1448,513;  203,479;    0,000
1077,097; 1436,699;  205,328;    0,000
1077,637; 1424,499;  205,439;    0,000
1078,177; 1407,827;  203,913;    0,000
1078,717; 1395,413;  204,766;    0,000
1079,257; 1379,770;  206,941;    0,000
1079,797; 1372,099;  210,331;    0,000
1080,337; 1359,056;  210,848;    0,000
1080,877; 1343,970;  208,226;    0,000
1081,417; 1328,627;  207,406;    0,000
1081,956; 1314,284;  207,436;    0,000
1082,496; 1296,099;  205,606;    0,000
1083,036; 1280,641;  204,488;    0,000
1083,575; 1258,456;  200,176;    0,000
1084,115; 1239,527;  197,792;    0,000
1084,655; 1226,913;  199,815;    0,000
1085,194; 1215,327;  201,346;    0,000
1085,733; 1205,327;  203,708;    0,000
1086,273; 1199,670;  205,421;    0,000
1086,812; 1197,827;  209,239;    0,000
1087,351; 1193,727;  211,091;    0,000
1087,890; 1185,870;  210,099;    0,000
1088,429; 1174,699;  210,881;    0,000
1088,969; 1160,913;  208,909;    0,000
1089,507; 1151,084;  209,501;    0,000
1090,047; 1134,113;  209,315;    0,000
1090,585; 1111,027;  203,596;    0,000
1091,124; 1095,384;  203,602;    0,000
1091,663; 1082,756;  206,195;    0,000
1092,202; 1069,870;  207,848;    0,000
1092,740; 1057,456;  208,743;    0,000
1093,279; 1042,184;  206,413;    0,000
1093,818; 1032,513;  205,158;    0,000
1094,356; 1025,013;  208,232;    0,000
1094,895; 1010,813;  206,805;    0,000
1095,433;  996,627;  204,838;    0,000
1095,971;  984,770;  203,221;    0,000
1096,510;  975,213;  201,822;    0,000
1097,048;  963,756;  200,842;    0,000
1097,586;  950,541;  201,033;    0,000
1098,124;  940,813;  200,926;    0,000
1098,662;  931,813;  203,608;    0,000
1099,200;  925,799;  204,806;    0,000
1099,738;  914,741;  204,136;    0,000
1100,276;  907,813;  208,125;    0,000

