0,79A
Integration time [ms]:   0,500
Averaging Nr. [scans]: 10
Smoothing Nr. [pixels]: 3
Data measured with spectrometer [name]: 7516255SP
Wave   ;Sample   ;Dark     ;Reference
[nm]   ;[counts] ;[counts] ;[counts] 

177,229;  251,632;  248,380;    0,000
177,829;  249,740;  245,964;    0,000
178,430;  258,256;  248,373;    0,000
179,030;  251,568;  250,642;    0,000
179,630;  252,436;  253,151;    0,000
180,230;  248,902;  249,422;    0,000
180,830;  251,286;  253,310;    0,000
181,430;  248,714;  249,852;    0,000
182,030;  255,705;  255,348;    0,000
182,630;  252,877;  252,722;    0,000
183,230;  258,237;  256,133;    0,000
183,830;  256,364;  255,035;    0,000
184,430;  260,244;  260,918;    0,000
185,030;  264,842;  265,794;    0,000
185,630;  267,331;  273,281;    0,000
186,229;  268,311;  276,549;    0,000
186,829;  267,704;  284,113;    0,000
187,429;  263,070;  284,655;    0,000
188,029;  261,406;  293,060;    0,000
188,628;  265,288;  296,144;    0,000
189,228;  262,345;  298,286;    0,000
189,828;  254,319;  301,049;    0,000
190,428;  246,484;  304,825;    0,000
191,027;  239,817;  307,658;    0,000
191,627;  240,149;  310,938;    0,000
192,227;  236,514;  308,449;    0,000
192,826;  233,653;  309,456;    0,000
193,426;  231,836;  305,352;    0,000
194,025;  243,207;  304,269;    0,000
194,625;  245,982;  297,290;    0,000
195,224;  249,969;  291,007;    0,000
195,824;  249,522;  284,067;    0,000
196,423;  254,669;  284,210;    0,000
197,023;  248,325;  273,975;    0,000
197,622;  257,081;  277,388;    0,000
198,221;  252,786;  271,407;    0,000
198,821;  253,840;  270,071;    0,000
199,420;  254,674;  267,807;    0,000
200,019;  254,970;  265,581;    0,000
200,619;  256,576;  266,708;    0,000
201,218;  258,820;  269,307;    0,000
201,817;  252,337;  262,689;    0,000
202,416;  258,921;  269,320;    0,000
203,016;  258,300;  267,603;    0,000
203,615;  260,173;  269,316;    0,000
204,214;  258,573;  268,581;    0,000
204,813;  260,232;  269,417;    0,000
205,412;  264,241;  270,504;    0,000
206,011;  265,009;  271,061;    0,000
206,610;  257,724;  262,624;    0,000
207,209;  253,350;  260,034;    0,000
207,808;  256,623;  263,300;    0,000
208,407;  258,881;  265,099;    0,000
209,006;  252,231;  259,918;    0,000
209,605;  257,813;  263,852;    0,000
210,204;  254,939;  261,611;    0,000
210,803;  257,511;  263,763;    0,000
211,402;  260,451;  267,671;    0,000
212,001;  257,019;  265,171;    0,000
212,599;  259,804;  265,613;    0,000
213,198;  259,492;  264,736;    0,000
213,797;  251,768;  258,824;    0,000
214,396;  252,796;  262,628;    0,000
214,994;  248,448;  259,891;    0,000
215,593;  248,501;  258,874;    0,000
216,192;  247,016;  256,996;    0,000
216,790;  247,019;  258,235;    0,000
217,389;  249,371;  262,211;    0,000
217,988;  252,084;  265,618;    0,000
218,586;  250,308;  261,907;    0,000
219,185;  249,105;  262,217;    0,000
219,783;  248,240;  261,125;    0,000
220,382;  248,583;  263,945;    0,000
220,980;  250,651;  265,514;    0,000
221,579;  253,739;  265,657;    0,000
222,177;  251,792;  265,160;    0,000
222,776;  252,984;  265,216;    0,000
223,374;  257,178;  267,622;    0,000
223,972;  259,802;  268,758;    0,000
224,571;  258,695;  266,607;    0,000
225,169;  257,876;  266,183;    0,000
225,767;  255,660;  263,128;    0,000
226,366;  256,330;  264,716;    0,000
226,964;  258,062;  265,381;    0,000
227,562;  258,339;  264,573;    0,000
228,160;  257,672;  266,307;    0,000
228,758;  256,516;  263,099;    0,000
229,356;  255,464;  264,018;    0,000
229,955;  254,767;  263,643;    0,000
230,553;  256,804;  262,812;    0,000
231,151;  252,752;  260,474;    0,000
231,749;  253,693;  261,002;    0,000
232,347;  255,134;  261,471;    0,000
232,945;  256,116;  263,359;    0,000
233,543;  256,219;  263,245;    0,000
234,141;  251,883;  259,740;    0,000
234,739;  251,889;  260,786;    0,000
235,337;  256,632;  266,127;    0,000
235,934;  256,547;  268,009;    0,000
236,532;  258,419;  269,234;    0,000
237,130;  258,587;  269,912;    0,000
237,728;  262,363;  271,060;    0,000
238,326;  268,385;  277,127;    0,000
238,923;  262,986;  273,391;    0,000
239,521;  259,078;  270,594;    0,000
240,119;  254,436;  264,347;    0,000
240,716;  255,721;  263,320;    0,000
241,314;  252,601;  260,868;    0,000
241,912;  245,266;  255,973;    0,000
242,509;  249,076;  260,687;    0,000
243,107;  253,935;  265,030;    0,000
243,704;  253,165;  263,643;    0,000
244,302;  257,160;  270,353;    0,000
244,899;  254,150;  268,025;    0,000
245,497;  261,607;  272,907;    0,000
246,094;  259,590;  270,101;    0,000
246,692;  254,651;  264,182;    0,000
247,289;  250,432;  258,082;    0,000
247,887;  255,510;  261,108;    0,000
248,484;  256,296;  261,014;    0,000
249,081;  253,388;  256,929;    0,000
249,679;  250,007;  254,140;    0,000
250,276;  254,060;  257,478;    0,000
250,873;  253,800;  257,489;    0,000
251,470;  260,882;  264,509;    0,000
252,067;  254,937;  257,864;    0,000
252,665;  251,695;  256,501;    0,000
253,262;  254,873;  261,268;    0,000
253,859;  256,301;  264,566;    0,000
254,456;  256,421;  266,818;    0,000
255,053;  255,205;  264,252;    0,000
255,650;  255,452;  264,688;    0,000
256,247;  257,813;  266,436;    0,000
256,844;  257,143;  262,412;    0,000
257,441;  262,366;  265,346;    0,000
258,038;  255,298;  256,555;    0,000
258,635;  259,156;  259,146;    0,000
259,232;  258,035;  258,136;    0,000
259,829;  257,337;  258,534;    0,000
260,426;  258,921;  260,226;    0,000
261,022;  263,063;  265,937;    0,000
261,619;  259,004;  263,246;    0,000
262,216;  263,806;  267,582;    0,000
262,813;  258,609;  263,416;    0,000
263,409;  262,566;  266,190;    0,000
264,006;  261,160;  263,910;    0,000
264,603;  264,918;  266,458;    0,000
265,199;  265,156;  266,212;    0,000
265,796;  263,644;  262,638;    0,000
266,393;  270,626;  270,051;    0,000
266,989;  270,376;  268,950;    0,000
267,586;  269,528;  269,445;    0,000
268,182;  270,096;  271,811;    0,000
268,779;  270,174;  271,297;    0,000
269,375;  271,904;  272,459;    0,000
269,971;  264,741;  269,812;    0,000
270,568;  263,333;  267,102;    0,000
271,164;  261,171;  265,667;    0,000
271,761;  263,704;  266,079;    0,000
272,357;  258,885;  262,751;    0,000
272,953;  257,162;  262,804;    0,000
273,550;  256,933;  263,553;    0,000
274,146;  263,360;  268,732;    0,000
274,742;  260,768;  267,040;    0,000
275,338;  261,548;  266,953;    0,000
275,934;  261,523;  269,701;    0,000
276,531;  261,298;  268,661;    0,000
277,127;  258,640;  266,833;    0,000
277,723;  254,059;  263,505;    0,000
278,319;  251,098;  260,610;    0,000
278,915;  257,713;  265,702;    0,000
279,511;  250,084;  261,135;    0,000
280,107;  253,000;  261,223;    0,000
280,703;  253,848;  261,557;    0,000
281,299;  253,357;  260,275;    0,000
281,895;  252,869;  260,898;    0,000
282,491;  252,457;  261,025;    0,000
283,086;  251,228;  260,856;    0,000
283,682;  256,181;  265,149;    0,000
284,278;  254,745;  263,061;    0,000
284,874;  251,975;  262,221;    0,000
285,470;  257,835;  268,220;    0,000
286,065;  260,251;  268,543;    0,000
286,661;  266,321;  271,852;    0,000
287,257;  258,294;  266,128;    0,000
287,852;  261,186;  269,122;    0,000
288,448;  259,486;  268,736;    0,000
289,044;  259,000;  267,845;    0,000
289,639;  255,508;  264,108;    0,000
290,235;  250,606;  261,245;    0,000
290,830;  248,143;  258,763;    0,000
291,426;  245,223;  256,138;    0,000
292,021;  245,307;  256,966;    0,000
292,617;  241,026;  252,863;    0,000
293,212;  241,443;  253,676;    0,000
293,807;  239,871;  251,590;    0,000
294,403;  246,458;  257,176;    0,000
294,998;  247,383;  259,197;    0,000
295,593;  249,569;  259,471;    0,000
296,189;  247,675;  257,496;    0,000
296,784;  247,474;  257,071;    0,000
297,379;  249,097;  258,813;    0,000
297,974;  251,639;  260,428;    0,000
298,570;  241,923;  252,022;    0,000
299,165;  236,120;  250,170;    0,000
299,760;  236,173;  250,522;    0,000
300,355;  240,098;  254,216;    0,000
300,950;  244,075;  256,042;    0,000
301,545;  245,946;  256,334;    0,000
302,140;  242,829;  255,723;    0,000
302,735;  247,788;  257,293;    0,000
303,330;  251,870;  259,781;    0,000
303,925;  250,696;  258,770;    0,000
304,520;  248,940;  258,857;    0,000
305,115;  246,087;  260,265;    0,000
305,709;  244,280;  258,280;    0,000
306,304;  242,707;  256,457;    0,000
306,899;  238,117;  255,726;    0,000
307,494;  240,617;  257,195;    0,000
308,089;  237,620;  253,993;    0,000
308,683;  239,497;  252,905;    0,000
309,278;  238,381;  249,781;    0,000
309,873;  241,970;  253,016;    0,000
310,467;  247,349;  257,138;    0,000
311,062;  253,237;  259,829;    0,000
311,656;  251,037;  256,316;    0,000
312,251;  257,879;  262,499;    0,000
312,846;  256,833;  260,375;    0,000
313,440;  260,012;  265,566;    0,000
314,035;  258,281;  262,472;    0,000
314,629;  259,310;  264,036;    0,000
315,223;  261,036;  266,656;    0,000
315,818;  263,757;  268,905;    0,000
316,412;  259,545;  265,768;    0,000
317,006;  261,304;  266,867;    0,000
317,601;  259,322;  264,141;    0,000
318,195;  261,630;  268,583;    0,000
318,789;  260,205;  267,468;    0,000
319,384;  261,052;  267,626;    0,000
319,978;  256,814;  264,087;    0,000
320,572;  263,625;  266,422;    0,000
321,166;  266,155;  270,525;    0,000
321,760;  266,862;  271,064;    0,000
322,354;  266,410;  268,470;    0,000
322,948;  262,099;  266,232;    0,000
323,542;  260,236;  262,171;    0,000
324,136;  262,511;  263,390;    0,000
324,730;  260,453;  263,056;    0,000
325,324;  256,909;  258,546;    0,000
325,918;  256,025;  257,352;    0,000
326,512;  256,662;  257,260;    0,000
327,106;  259,612;  260,163;    0,000
327,700;  256,543;  258,710;    0,000
328,294;  258,497;  262,356;    0,000
328,887;  257,299;  260,123;    0,000
329,481;  258,656;  260,701;    0,000
330,075;  259,806;  260,312;    0,000
330,669;  258,052;  256,986;    0,000
331,262;  258,019;  252,608;    0,000
331,856;  261,188;  252,427;    0,000
332,449;  260,789;  249,961;    0,000
333,043;  265,177;  253,043;    0,000
333,637;  263,738;  248,985;    0,000
334,230;  262,379;  247,576;    0,000
334,824;  265,281;  248,912;    0,000
335,417;  264,505;  249,551;    0,000
336,011;  263,228;  249,473;    0,000
336,604;  256,119;  243,618;    0,000
337,197;  251,138;  239,138;    0,000
337,791;  251,058;  241,150;    0,000
338,384;  249,701;  240,818;    0,000
338,977;  247,441;  239,483;    0,000
339,571;  243,903;  236,886;    0,000
340,164;  242,445;  235,665;    0,000
340,757;  250,301;  242,840;    0,000
341,350;  252,038;  242,880;    0,000
341,943;  249,825;  240,909;    0,000
342,537;  248,008;  238,109;    0,000
343,130;  248,474;  235,497;    0,000
343,723;  254,351;  237,841;    0,000
344,316;  256,825;  235,469;    0,000
344,909;  256,767;  233,252;    0,000
345,502;  261,849;  237,004;    0,000
346,095;  265,761;  238,174;    0,000
346,688;  270,902;  242,384;    0,000
347,281;  272,753;  241,916;    0,000
347,874;  273,428;  241,894;    0,000
348,466;  277,941;  249,562;    0,000
349,059;  281,510;  251,577;    0,000
349,652;  277,645;  246,126;    0,000
350,245;  279,060;  245,978;    0,000
350,838;  277,759;  244,679;    0,000
351,430;  283,140;  248,030;    0,000
352,023;  280,257;  244,793;    0,000
352,616;  279,321;  239,239;    0,000
353,208;  277,784;  239,597;    0,000
353,801;  287,087;  244,491;    0,000
354,393;  291,429;  245,289;    0,000
354,986;  297,468;  246,962;    0,000
355,578;  299,172;  246,807;    0,000
356,171;  305,223;  251,427;    0,000
356,763;  311,852;  255,434;    0,000
357,356;  312,995;  253,357;    0,000
357,948;  310,050;  250,493;    0,000
358,541;  311,710;  251,416;    0,000
359,133;  312,492;  251,927;    0,000
359,725;  313,839;  249,585;    0,000
360,318;  311,200;  246,151;    0,000
360,910;  312,347;  244,801;    0,000
361,502;  314,422;  244,266;    0,000
362,094;  315,130;  244,408;    0,000
362,686;  313,852;  239,185;    0,000
363,279;  311,033;  236,351;    0,000
363,871;  317,636;  241,677;    0,000
364,463;  321,351;  243,320;    0,000
365,055;  322,545;  241,634;    0,000
365,647;  325,786;  242,106;    0,000
366,239;  325,809;  240,313;    0,000
366,831;  328,828;  244,023;    0,000
367,423;  334,324;  246,456;    0,000
368,015;  329,134;  243,213;    0,000
368,607;  332,582;  243,993;    0,000
369,198;  336,652;  246,042;    0,000
369,790;  335,034;  244,907;    0,000
370,382;  336,085;  245,851;    0,000
370,974;  336,021;  243,277;    0,000
371,565;  335,728;  242,518;    0,000
372,157;  335,345;  240,254;    0,000
372,749;  334,999;  240,618;    0,000
373,341;  327,752;  234,984;    0,000
373,932;  334,146;  241,550;    0,000
374,524;  339,456;  243,270;    0,000
375,115;  341,901;  244,316;    0,000
375,707;  346,924;  247,594;    0,000
376,298;  355,191;  251,831;    0,000
376,890;  358,296;  253,240;    0,000
377,481;  368,068;  256,774;    0,000
378,073;  363,917;  250,168;    0,000
378,664;  367,217;  251,531;    0,000
379,255;  370,618;  252,147;    0,000
379,847;  370,072;  250,619;    0,000
380,438;  367,743;  247,796;    0,000
381,029;  367,831;  246,816;    0,000
381,620;  364,936;  244,288;    0,000
382,212;  368,092;  245,604;    0,000
382,803;  367,610;  243,854;    0,000
383,394;  367,252;  243,309;    0,000
383,985;  368,052;  240,939;    0,000
384,576;  371,629;  244,389;    0,000
385,167;  370,097;  242,575;    0,000
385,758;  374,892;  245,111;    0,000
386,349;  374,700;  243,712;    0,000
386,940;  380,228;  247,607;    0,000
387,531;  384,656;  252,439;    0,000
388,122;  388,153;  256,493;    0,000
388,713;  389,091;  252,911;    0,000
389,304;  394,388;  255,892;    0,000
389,895;  398,030;  257,693;    0,000
390,485;  406,041;  268,292;    0,000
391,076;  405,199;  265,205;    0,000
391,667;  412,492;  266,486;    0,000
392,258;  416,027;  265,736;    0,000
392,848;  420,489;  269,066;    0,000
393,439;  421,694;  266,276;    0,000
394,030;  423,986;  264,516;    0,000
394,620;  427,608;  260,640;    0,000
395,211;  435,390;  261,828;    0,000
395,801;  437,955;  259,375;    0,000
396,392;  440,848;  257,600;    0,000
396,982;  447,926;  255,339;    0,000
397,573;  458,634;  260,162;    0,000
398,163;  469,103;  261,856;    0,000
398,753;  472,570;  256,216;    0,000
399,344;  475,201;  255,062;    0,000
399,934;  478,986;  251,800;    0,000
400,524;  489,808;  254,322;    0,000
401,115;  499,146;  255,700;    0,000
401,705;  500,609;  250,461;    0,000
402,295;  508,023;  250,508;    0,000
402,885;  512,900;  250,221;    0,000
403,475;  520,540;  250,185;    0,000
404,065;  530,715;  251,519;    0,000
404,655;  537,903;  249,740;    0,000
405,245;  545,881;  246,981;    0,000
405,835;  563,981;  253,258;    0,000
406,425;  572,883;  255,007;    0,000
407,015;  586,628;  256,960;    0,000
407,605;  601,483;  259,085;    0,000
408,195;  615,388;  262,687;    0,000
408,785;  624,737;  262,663;    0,000
409,375;  632,421;  265,668;    0,000
409,965;  641,189;  266,054;    0,000
410,554;  654,316;  266,891;    0,000
411,144;  666,470;  270,053;    0,000
411,734;  677,187;  270,397;    0,000
412,324;  684,536;  268,015;    0,000
412,913;  696,820;  268,299;    0,000
413,503;  711,244;  271,981;    0,000
414,092;  717,612;  272,467;    0,000
414,682;  727,601;  271,922;    0,000
415,271;  733,362;  268,236;    0,000
415,861;  736,427;  265,582;    0,000
416,450;  747,004;  268,319;    0,000
417,040;  755,278;  268,633;    0,000
417,629;  762,025;  266,235;    0,000
418,219;  770,891;  262,710;    0,000
418,808;  778,651;  261,422;    0,000
419,397;  788,236;  260,415;    0,000
419,986;  804,787;  265,594;    0,000
420,576;  814,149;  267,100;    0,000
421,165;  822,801;  268,885;    0,000
421,754;  826,451;  264,798;    0,000
422,343;  837,042;  267,904;    0,000
422,932;  838,353;  264,405;    0,000
423,521;  846,790;  265,502;    0,000
424,111;  845,655;  258,886;    0,000
424,700;  851,935;  259,019;    0,000
425,289;  856,662;  256,699;    0,000
425,878;  863,360;  259,392;    0,000
426,466;  863,450;  256,014;    0,000
427,055;  870,940;  258,622;    0,000
427,644;  872,896;  259,672;    0,000
428,233;  881,467;  264,083;    0,000
428,822;  882,060;  260,465;    0,000
429,411;  887,091;  260,750;    0,000
429,999;  891,332;  262,128;    0,000
430,588;  891,633;  260,544;    0,000
431,177;  892,460;  259,795;    0,000
431,766;  897,343;  260,753;    0,000
432,354;  901,741;  260,748;    0,000
432,943;  901,297;  258,111;    0,000
433,531;  900,482;  257,433;    0,000
434,120;  905,415;  254,996;    0,000
434,708;  912,427;  255,948;    0,000
435,297;  920,005;  258,099;    0,000
435,885;  917,976;  253,315;    0,000
436,474;  917,470;  248,315;    0,000
437,062;  922,738;  246,455;    0,000
437,650;  930,683;  246,416;    0,000
438,239;  930,520;  244,101;    0,000
438,827;  934,585;  241,945;    0,000
439,415;  936,390;  237,557;    0,000
440,003;  948,490;  241,542;    0,000
440,592;  957,347;  244,478;    0,000
441,180;  967,949;  248,450;    0,000
441,768;  971,942;  245,871;    0,000
442,356;  986,762;  249,567;    0,000
442,944;  998,100;  252,979;    0,000
443,532; 1008,569;  255,930;    0,000
444,120; 1011,566;  249,975;    0,000
444,708; 1019,804;  249,633;    0,000
445,296; 1025,660;  245,660;    0,000
445,884; 1035,694;  249,389;    0,000
446,472; 1041,800;  247,887;    0,000
447,060; 1051,445;  245,555;    0,000
447,647; 1061,098;  244,988;    0,000
448,235; 1079,062;  250,613;    0,000
448,823; 1087,772;  249,174;    0,000
449,411; 1098,108;  252,970;    0,000
449,998; 1108,677;  248,784;    0,000
450,586; 1119,015;  247,208;    0,000
451,173; 1133,775;  250,824;    0,000
451,761; 1149,192;  250,938;    0,000
452,349; 1162,895;  250,993;    0,000
452,936; 1178,852;  254,525;    0,000
453,524; 1197,170;  252,976;    0,000
454,111; 1212,704;  255,591;    0,000
454,698; 1229,913;  258,294;    0,000
455,286; 1246,950;  260,011;    0,000
455,873; 1261,367;  261,239;    0,000
456,461; 1276,684;  262,133;    0,000
457,048; 1292,768;  258,698;    0,000
457,635; 1308,402;  262,088;    0,000
458,222; 1330,374;  263,287;    0,000
458,810; 1351,790;  266,463;    0,000
459,397; 1359,479;  257,990;    0,000
459,984; 1379,234;  260,569;    0,000
460,571; 1395,823;  256,247;    0,000
461,158; 1413,978;  253,638;    0,000
461,745; 1433,801;  251,734;    0,000
462,332; 1455,827;  250,932;    0,000
462,919; 1475,573;  248,508;    0,000
463,506; 1514,510;  258,477;    0,000
464,093; 1537,910;  255,464;    0,000
464,680; 1564,830;  257,617;    0,000
465,267; 1595,185;  263,426;    0,000
465,853; 1621,414;  260,970;    0,000
466,440; 1647,173;  262,505;    0,000
467,027; 1677,336;  263,808;    0,000
467,614; 1697,799;  259,329;    0,000
468,200; 1733,657;  263,092;    0,000
468,787; 1763,530;  261,737;    0,000
469,374; 1795,057;  260,891;    0,000
469,960; 1826,586;  263,888;    0,000
470,547; 1857,077;  262,031;    0,000
471,133; 1883,692;  257,284;    0,000
471,720; 1918,658;  256,917;    0,000
472,306; 1951,633;  257,644;    0,000
472,893; 1983,073;  258,089;    0,000
473,479; 2021,877;  261,826;    0,000
474,065; 2058,115;  260,896;    0,000
474,652; 2090,641;  262,724;    0,000
475,238; 2128,076;  265,230;    0,000
475,824; 2159,771;  260,808;    0,000
476,410; 2196,440;  262,634;    0,000
476,997; 2232,055;  264,502;    0,000
477,583; 2265,141;  260,916;    0,000
478,169; 2303,740;  261,974;    0,000
478,755; 2349,024;  262,301;    0,000
479,341; 2383,648;  258,638;    0,000
479,927; 2418,155;  259,911;    0,000
480,513; 2453,177;  255,849;    0,000
481,099; 2492,789;  253,465;    0,000
481,685; 2529,602;  253,179;    0,000
482,271; 2567,021;  253,007;    0,000
482,857; 2600,540;  246,490;    0,000
483,443; 2647,151;  252,079;    0,000
484,028; 2683,293;  247,732;    0,000
484,614; 2719,816;  247,765;    0,000
485,200; 2747,026;  243,439;    0,000
485,786; 2782,823;  240,957;    0,000
486,371; 2817,935;  242,400;    0,000
486,957; 2858,829;  246,578;    0,000
487,543; 2893,473;  246,197;    0,000
488,128; 2932,424;  250,206;    0,000
488,714; 2972,278;  251,568;    0,000
489,299; 3019,436;  259,992;    0,000
489,885; 3057,515;  258,537;    0,000
490,470; 3093,146;  257,390;    0,000
491,055; 3121,006;  254,111;    0,000
491,641; 3151,478;  255,055;    0,000
492,226; 3195,070;  260,389;    0,000
492,811; 3218,514;  254,750;    0,000
493,397; 3247,496;  254,919;    0,000
493,982; 3275,254;  256,648;    0,000
494,567; 3303,813;  256,162;    0,000
495,152; 3333,209;  258,532;    0,000
495,738; 3354,149;  254,086;    0,000
496,323; 3379,040;  251,843;    0,000
496,908; 3412,634;  254,065;    0,000
497,493; 3436,505;  250,812;    0,000
498,078; 3464,250;  251,709;    0,000
498,663; 3488,357;  250,125;    0,000
499,248; 3512,010;  248,506;    0,000
499,833; 3543,648;  247,788;    0,000
500,417; 3559,746;  242,695;    0,000
501,002; 3577,567;  242,193;    0,000
501,587; 3602,894;  238,914;    0,000
502,172; 3629,621;  239,588;    0,000
502,757; 3650,245;  238,194;    0,000
503,341; 3676,163;  241,729;    0,000
503,926; 3690,113;  240,716;    0,000
504,511; 3703,215;  240,903;    0,000
505,095; 3732,087;  248,322;    0,000
505,680; 3750,051;  250,122;    0,000
506,264; 3775,438;  257,819;    0,000
506,849; 3785,722;  251,368;    0,000
507,433; 3808,085;  253,752;    0,000
508,018; 3827,032;  257,965;    0,000
508,602; 3852,800;  261,651;    0,000
509,186; 3868,144;  259,215;    0,000
509,771; 3885,266;  256,574;    0,000
510,355; 3891,951;  252,093;    0,000
510,939; 3912,700;  255,325;    0,000
511,524; 3926,625;  254,618;    0,000
512,108; 3944,974;  252,347;    0,000
512,692; 3967,132;  253,454;    0,000
513,276; 3982,095;  246,569;    0,000
513,860; 4008,654;  251,344;    0,000
514,444; 4028,621;  245,930;    0,000
515,028; 4053,687;  250,616;    0,000
515,612; 4070,483;  245,847;    0,000
516,196; 4094,899;  246,873;    0,000
516,780; 4121,856;  247,062;    0,000
517,364; 4140,239;  249,719;    0,000
517,948; 4163,268;  250,687;    0,000
518,532; 4187,878;  254,527;    0,000
519,115; 4211,536;  251,718;    0,000
519,699; 4248,582;  259,501;    0,000
520,283; 4277,553;  261,003;    0,000
520,867; 4294,499;  260,760;    0,000
521,450; 4328,396;  261,295;    0,000
522,034; 4346,043;  261,988;    0,000
522,617; 4369,419;  262,194;    0,000
523,201; 4390,204;  265,138;    0,000
523,784; 4397,203;  258,227;    0,000
524,368; 4412,226;  257,385;    0,000
524,951; 4438,283;  258,779;    0,000
525,535; 4453,424;  259,987;    0,000
526,118; 4482,771;  259,487;    0,000
526,702; 4509,301;  257,499;    0,000
527,285; 4550,622;  261,842;    0,000
527,868; 4585,115;  262,851;    0,000
528,451; 4624,812;  263,683;    0,000
529,035; 4657,986;  262,356;    0,000
529,618; 4697,543;  261,786;    0,000
530,201; 4735,331;  262,815;    0,000
530,784; 4769,319;  263,076;    0,000
531,367; 4802,450;  263,668;    0,000
531,950; 4840,925;  263,956;    0,000
532,533; 4872,379;  266,343;    0,000
533,116; 4915,927;  272,031;    0,000
533,699; 4950,711;  270,042;    0,000
534,282; 4979,359;  265,975;    0,000
534,865; 5021,375;  265,056;    0,000
535,448; 5055,581;  259,457;    0,000
536,030; 5099,963;  260,227;    0,000
536,613; 5152,617;  258,261;    0,000
537,196; 5195,128;  250,764;    0,000
537,778; 5247,752;  253,173;    0,000
538,361; 5313,515;  255,563;    0,000
538,944; 5362,766;  257,692;    0,000
539,526; 5429,875;  264,423;    0,000
540,109; 5490,145;  267,570;    0,000
540,691; 5555,332;  267,620;    0,000
541,274; 5621,712;  271,078;    0,000
541,856; 5690,228;  271,170;    0,000
542,439; 5761,283;  275,525;    0,000
543,021; 5844,656;  273,547;    0,000
543,603; 5914,135;  272,220;    0,000
544,186; 5998,537;  268,326;    0,000
544,768; 6069,469;  270,325;    0,000
545,350; 6145,938;  269,367;    0,000
545,932; 6217,770;  268,234;    0,000
546,515; 6289,424;  265,942;    0,000
547,097; 6356,512;  265,698;    0,000
547,679; 6438,218;  267,069;    0,000
548,261; 6513,446;  271,534;    0,000
548,843; 6591,488;  269,930;    0,000
549,425; 6668,947;  269,030;    0,000
550,007; 6755,630;  271,009;    0,000
550,589; 6830,843;  270,362;    0,000
551,171; 6905,453;  270,839;    0,000
551,752; 6983,497;  265,105;    0,000
552,334; 7060,886;  260,576;    0,000
552,916; 7141,891;  261,238;    0,000
553,498; 7225,230;  260,454;    0,000
554,079; 7301,972;  256,369;    0,000
554,661; 7400,666;  255,012;    0,000
555,243; 7504,065;  255,472;    0,000
555,824; 7602,184;  255,996;    0,000
556,406; 7692,243;  254,216;    0,000
556,987; 7795,245;  251,841;    0,000
557,569; 7901,163;  251,488;    0,000
558,150; 8012,338;  256,323;    0,000
558,732; 8122,370;  259,544;    0,000
559,313; 8231,006;  259,289;    0,000
559,894; 8340,695;  257,912;    0,000
560,476; 8463,982;  258,311;    0,000
561,057; 8568,405;  258,022;    0,000
561,638; 8687,350;  261,086;    0,000
562,219; 8797,994;  254,565;    0,000
562,801; 8888,842;  252,044;    0,000
563,382; 8998,241;  252,728;    0,000
563,963; 9118,086;  255,558;    0,000
564,544; 9228,224;  254,343;    0,000
565,125; 9347,812;  251,563;    0,000
565,706; 9463,524;  252,219;    0,000
566,287; 9580,597;  253,565;    0,000
566,868; 9711,426;  250,874;    0,000
567,449; 9834,456;  251,190;    0,000
568,030; 9948,812;  248,971;    0,000
568,610;10068,015;  251,542;    0,000
569,191;10194,056;  254,743;    0,000
569,772;10321,027;  252,371;    0,000
570,353;10455,839;  250,584;    0,000
570,933;10603,223;  251,704;    0,000
571,514;10741,591;  248,239;    0,000
572,094;10875,014;  247,208;    0,000
572,675;11012,169;  244,184;    0,000
573,256;11169,611;  246,226;    0,000
573,836;11316,575;  243,062;    0,000
574,417;11470,242;  245,329;    0,000
574,997;11622,418;  250,444;    0,000
575,577;11774,345;  252,240;    0,000
576,158;11937,806;  255,950;    0,000
576,738;12110,014;  261,059;    0,000
577,318;12265,473;  260,621;    0,000
577,898;12437,795;  264,233;    0,000
578,479;12604,688;  264,338;    0,000
579,059;12756,916;  259,650;    0,000
579,639;12920,215;  260,547;    0,000
580,219;13087,292;  258,823;    0,000
580,799;13246,442;  254,051;    0,000
581,379;13411,046;  249,415;    0,000
581,959;13564,598;  247,527;    0,000
582,539;13716,758;  249,237;    0,000
583,119;13868,187;  247,717;    0,000
583,699;14029,776;  247,045;    0,000
584,279;14159,372;  245,597;    0,000
584,859;14313,390;  250,336;    0,000
585,438;14474,700;  251,422;    0,000
586,018;14612,880;  251,537;    0,000
586,598;14773,608;  250,061;    0,000
587,177;14937,313;  250,660;    0,000
587,757;15069,165;  251,752;    0,000
588,337;15248,326;  253,612;    0,000
588,916;15413,813;  252,747;    0,000
589,496;15537,480;  251,183;    0,000
590,075;15690,441;  254,184;    0,000
590,654;15823,305;  253,285;    0,000
591,234;15950,341;  253,104;    0,000
591,813;16109,488;  253,109;    0,000
592,393;16242,831;  250,467;    0,000
592,972;16371,279;  248,901;    0,000
593,551;16523,803;  253,295;    0,000
594,130;16666,275;  252,929;    0,000
594,710;16801,463;  256,140;    0,000
595,289;16950,869;  256,350;    0,000
595,868;17090,982;  254,909;    0,000
596,447;17234,119;  257,732;    0,000
597,026;17363,691;  259,218;    0,000
597,605;17480,990;  259,170;    0,000
598,184;17598,023;  253,643;    0,000
598,763;17716,043;  253,969;    0,000
599,342;17836,900;  254,811;    0,000
599,920;17911,037;  254,227;    0,000
600,499;17994,975;  257,179;    0,000
601,078;18069,352;  254,611;    0,000
601,657;18143,670;  254,015;    0,000
602,236;18204,189;  258,225;    0,000
602,814;18257,762;  255,697;    0,000
603,393;18312,148;  254,089;    0,000
603,971;18409,324;  257,703;    0,000
604,550;18483,836;  255,885;    0,000
605,128;18555,281;  255,768;    0,000
605,707;18642,256;  258,010;    0,000
606,285;18753,467;  256,517;    0,000
606,864;18859,023;  259,545;    0,000
607,442;18970,709;  261,543;    0,000
608,020;19041,494;  262,527;    0,000
608,599;19117,600;  261,153;    0,000
609,177;19249,727;  267,088;    0,000
609,755;19356,826;  262,899;    0,000
610,333;19462,201;  260,668;    0,000
610,912;19568,574;  261,503;    0,000
611,490;19651,617;  261,456;    0,000
612,068;19773,221;  257,011;    0,000
612,646;19904,789;  259,401;    0,000
613,224;19979,051;  258,192;    0,000
613,802;20070,301;  259,362;    0,000
614,380;20152,920;  262,417;    0,000
614,958;20224,967;  261,604;    0,000
615,535;20307,967;  259,556;    0,000
616,113;20369,018;  263,270;    0,000
616,691;20417,100;  260,499;    0,000
617,269;20471,592;  257,929;    0,000
617,846;20512,395;  258,597;    0,000
618,424;20540,871;  257,153;    0,000
619,002;20580,502;  257,412;    0,000
619,579;20593,432;  258,127;    0,000
620,157;20613,223;  259,895;    0,000
620,734;20612,695;  263,295;    0,000
621,312;20612,748;  263,716;    0,000
621,889;20615,547;  264,051;    0,000
622,467;20640,525;  264,926;    0,000
623,044;20669,402;  265,122;    0,000
623,621;20702,215;  266,501;    0,000
624,198;20736,939;  262,823;    0,000
624,776;20796,947;  259,284;    0,000
625,353;20880,508;  258,854;    0,000
625,930;20966,834;  258,825;    0,000
626,507;21044,650;  260,944;    0,000
627,084;21134,238;  259,324;    0,000
627,661;21223,484;  257,543;    0,000
628,238;21322,662;  258,200;    0,000
628,815;21417,816;  258,318;    0,000
629,392;21502,840;  257,186;    0,000
629,969;21609,980;  258,527;    0,000
630,546;21694,033;  257,854;    0,000
631,123;21765,457;  259,866;    0,000
631,700;21847,551;  262,100;    0,000
632,276;21936,203;  261,257;    0,000
632,853;22004,648;  265,053;    0,000
633,430;22061,578;  268,348;    0,000
634,006;22089,674;  268,139;    0,000
634,583;22137,906;  271,242;    0,000
635,160;22181,504;  271,058;    0,000
635,736;22229,264;  270,849;    0,000
636,313;22263,311;  269,367;    0,000
636,889;22321,297;  264,866;    0,000
637,466;22391,238;  266,076;    0,000
638,042;22470,701;  265,493;    0,000
638,618;22536,279;  260,950;    0,000
639,194;22602,014;  257,652;    0,000
639,771;22688,039;  254,357;    0,000
640,347;22782,547;  258,360;    0,000
640,923;22846,828;  258,692;    0,000
641,499;22900,523;  256,268;    0,000
642,075;22962,660;  255,886;    0,000
642,651;23046,041;  257,593;    0,000
643,227;23145,922;  260,449;    0,000
643,803;23215,602;  265,937;    0,000
644,379;23265,281;  264,418;    0,000
644,955;23321,063;  264,528;    0,000
645,531;23388,900;  266,136;    0,000
646,107;23453,137;  266,310;    0,000
646,683;23514,975;  261,630;    0,000
647,259;23550,469;  260,637;    0,000
647,834;23570,178;  258,141;    0,000
648,410;23611,559;  253,875;    0,000
648,986;23653,682;  253,129;    0,000
649,561;23703,320;  254,212;    0,000
650,137;23713,758;  252,304;    0,000
650,712;23720,080;  252,114;    0,000
651,288;23758,246;  253,099;    0,000
651,863;23829,971;  253,534;    0,000
652,439;23898,994;  253,932;    0,000
653,014;23975,203;  255,795;    0,000
653,589;24039,311;  250,301;    0,000
654,165;24145,949;  250,942;    0,000
654,740;24259,086;  252,702;    0,000
655,315;24347,895;  249,966;    0,000
655,890;24460,732;  252,999;    0,000
656,465;24559,213;  253,017;    0,000
657,040;24667,451;  248,400;    0,000
657,616;24775,488;  246,150;    0,000
658,191;24897,068;  247,818;    0,000
658,766;25009,648;  249,874;    0,000
659,340;25143,559;  248,099;    0,000
659,915;25254,268;  246,527;    0,000
660,490;25352,477;  245,980;    0,000
661,065;25466,898;  247,975;    0,000
661,640;25589,494;  247,348;    0,000
662,215;25685,846;  245,919;    0,000
662,789;25786,727;  246,881;    0,000
663,364;25875,006;  248,277;    0,000
663,939;25959,301;  243,695;    0,000
664,513;26079,840;  246,045;    0,000
665,088;26175,963;  245,948;    0,000
665,662;26274,172;  249,638;    0,000
666,237;26406,180;  251,479;    0,000
666,811;26546,275;  246,859;    0,000
667,385;26677,770;  248,055;    0,000
667,960;26817,949;  247,302;    0,000
668,534;26958,572;  245,849;    0,000
669,108;27098,711;  245,342;    0,000
669,683;27243,049;  242,561;    0,000
670,257;27377,301;  238,549;    0,000
670,831;27496,252;  237,278;    0,000
671,405;27676,305;  236,535;    0,000
671,979;27841,598;  235,432;    0,000
672,553;28017,494;  234,939;    0,000
673,127;28217,744;  236,778;    0,000
673,701;28397,768;  234,465;    0,000
674,275;28597,162;  234,272;    0,000
674,849;28809,559;  236,680;    0,000
675,423;28972,523;  235,712;    0,000
675,997;29140,289;  237,219;    0,000
676,570;29313,541;  236,931;    0,000
677,144;29461,021;  234,048;    0,000
677,718;29623,631;  239,117;    0,000
678,292;29780,340;  241,727;    0,000
678,865;29921,436;  241,063;    0,000
679,439;30068,715;  242,267;    0,000
680,012;30210,168;  241,816;    0,000
680,586;30315,762;  241,838;    0,000
681,159;30448,857;  242,501;    0,000
681,733;30571,637;  242,400;    0,000
682,306;30670,104;  239,225;    0,000
682,879;30800,982;  240,657;    0,000
683,453;30909,678;  240,089;    0,000
684,026;31060,473;  242,606;    0,000
684,599;31230,738;  242,043;    0,000
685,172;31382,049;  244,760;    0,000
685,745;31537,986;  244,524;    0,000
686,318;31721,881;  245,944;    0,000
686,891;31864,861;  244,057;    0,000
687,464;32039,342;  245,022;    0,000
688,037;32185,221;  244,939;    0,000
688,610;32315,588;  243,183;    0,000
689,183;32460,439;  242,404;    0,000
689,756;32624,748;  242,387;    0,000
690,329;32758,557;  240,662;    0,000
690,902;32926,379;  243,891;    0,000
691,474;33083,219;  241,976;    0,000
692,047;33300,199;  238,492;    0,000
692,620;33527,508;  243,035;    0,000
693,192;33727,945;  242,863;    0,000
693,765;33903,211;  242,311;    0,000
694,337;34064,793;  241,948;    0,000
694,910;34260,285;  242,407;    0,000
695,482;34459,125;  244,929;    0,000
696,055;34617,402;  246,681;    0,000
696,627;34771,215;  247,162;    0,000
697,199;34933,938;  241,539;    0,000
697,772;35093,660;  239,887;    0,000
698,344;35294,027;  240,238;    0,000
698,916;35454,391;  235,678;    0,000
699,488;35645,230;  233,481;    0,000
700,060;35823,766;  232,502;    0,000
700,633;35997,234;  229,934;    0,000
701,205;36168,129;  233,210;    0,000
701,777;36352,809;  236,673;    0,000
702,349;36513,230;  237,645;    0,000
702,920;36654,125;  239,883;    0,000
703,492;36772,348;  238,511;    0,000
704,064;36888,328;  237,125;    0,000
704,636;37040,523;  237,060;    0,000
705,208;37224,949;  234,116;    0,000
705,779;37463,344;  230,690;    0,000
706,351;37695,480;  230,592;    0,000
706,923;37928,918;  226,774;    0,000
707,494;38191,598;  228,590;    0,000
708,066;38471,535;  228,357;    0,000
708,638;38736,918;  226,571;    0,000
709,209;38991,313;  229,691;    0,000
709,780;39203,961;  228,023;    0,000
710,352;39445,543;  225,869;    0,000
710,923;39725,008;  230,893;    0,000
711,494;39957,160;  227,040;    0,000
712,066;40200,383;  230,141;    0,000
712,637;40441,949;  228,793;    0,000
713,208;40694,301;  229,881;    0,000
713,779;40954,555;  232,612;    0,000
714,350;41182,949;  234,140;    0,000
714,922;41360,527;  232,259;    0,000
715,492;41580,410;  234,523;    0,000
716,064;41759,832;  232,506;    0,000
716,634;41918,414;  232,442;    0,000
717,205;42096,336;  235,004;    0,000
717,776;42263,930;  234,572;    0,000
718,347;42441,656;  236,812;    0,000
718,918;42656,164;  237,204;    0,000
719,489;42811,031;  238,098;    0,000
720,059;42982,426;  238,865;    0,000
720,630;43169,961;  240,833;    0,000
721,201;43335,500;  238,909;    0,000
721,771;43501,352;  240,538;    0,000
722,342;43697,719;  241,133;    0,000
722,912;43892,941;  239,642;    0,000
723,483;44142,348;  239,604;    0,000
724,053;44393,043;  241,219;    0,000
724,623;44628,738;  239,823;    0,000
725,194;44883,691;  239,468;    0,000
725,764;45167,172;  239,967;    0,000
726,334;45426,082;  238,789;    0,000
726,904;45633,645;  235,993;    0,000
727,475;45875,039;  239,583;    0,000
728,045;46073,605;  237,339;    0,000
728,615;46338,145;  237,634;    0,000
729,185;46598,938;  238,833;    0,000
729,755;46809,719;  234,822;    0,000
730,325;47021,199;  231,614;    0,000
730,895;47295,539;  234,866;    0,000
731,465;47462,977;  230,298;    0,000
732,034;47685,012;  231,329;    0,000
732,604;47869,621;  235,100;    0,000
733,174;48045,559;  232,612;    0,000
733,744;48243,855;  234,120;    0,000
734,313;48477,277;  239,443;    0,000
734,883;48691,844;  236,824;    0,000
735,453;48998,551;  239,424;    0,000
736,022;49233,703;  237,785;    0,000
736,592;49498,027;  237,104;    0,000
737,161;49735,266;  240,513;    0,000
737,731;49965,176;  242,932;    0,000
738,300;50164,039;  240,007;    0,000
738,869;50344,137;  241,203;    0,000
739,439;50471,402;  237,089;    0,000
740,008;50653,824;  239,286;    0,000
740,577;50785,676;  237,025;    0,000
741,146;50965,930;  235,741;    0,000
741,715;51146,410;  232,914;    0,000
742,284;51311,332;  234,189;    0,000
742,853;51524,328;  235,525;    0,000
743,422;51723,293;  238,814;    0,000
743,991;51893,801;  235,422;    0,000
744,560;52106,867;  236,225;    0,000
745,129;52334,762;  234,873;    0,000
745,698;52556,344;  235,886;    0,000
746,267;52802,508;  235,688;    0,000
746,836;53037,230;  233,993;    0,000
747,404;53297,457;  236,829;    0,000
747,973;53570,406;  240,615;    0,000
748,542;53776,301;  240,500;    0,000
749,110;53908,254;  242,198;    0,000
749,679;54021,949;  242,237;    0,000
750,247;54096,699;  238,475;    0,000
750,816;54222,410;  240,612;    0,000
751,384;54281,660;  235,798;    0,000
751,952;54341,328;  234,616;    0,000
752,521;54412,480;  233,754;    0,000
753,089;54511,918;  231,118;    0,000
753,657;54649,098;  231,199;    0,000
754,225;54817,176;  234,364;    0,000
754,794;54876,500;  233,773;    0,000
755,362;55026,297;  235,392;    0,000
755,930;55156,176;  238,381;    0,000
756,498;55287,871;  237,676;    0,000
757,066;55379,336;  238,056;    0,000
757,634;55469,176;  239,277;    0,000
758,202;55466,156;  239,633;    0,000
758,769;55516,965;  242,254;    0,000
759,337;55488,188;  242,770;    0,000
759,905;55442,625;  237,417;    0,000
760,473;55503,777;  238,949;    0,000
761,041;55531,055;  236,451;    0,000
761,608;55535,609;  233,946;    0,000
762,176;55649,316;  234,538;    0,000
762,743;55711,770;  231,104;    0,000
763,311;55805,750;  227,092;    0,000
763,878;55913,500;  228,504;    0,000
764,446;55950,781;  225,817;    0,000
765,013;56060,590;  228,188;    0,000
765,581;56144,371;  229,577;    0,000
766,148;56223,793;  228,399;    0,000
766,715;56303,805;  228,065;    0,000
767,282;56383,969;  232,754;    0,000
767,849;56455,207;  231,726;    0,000
768,417;56482,059;  233,958;    0,000
768,984;56436,566;  230,974;    0,000
769,551;56393,520;  230,177;    0,000
770,118;56355,242;  227,122;    0,000
770,685;56264,723;  225,045;    0,000
771,252;56126,461;  220,230;    0,000
771,819;56072,441;  221,265;    0,000
772,385;56008,234;  218,347;    0,000
772,952;55991,574;  217,637;    0,000
773,519;55976,910;  216,848;    0,000
774,086;55902,762;  217,023;    0,000
774,652;55901,516;  217,362;    0,000
775,219;55942,023;  218,477;    0,000
775,786;55932,246;  220,400;    0,000
776,352;55899,941;  221,159;    0,000
776,919;55863,223;  230,688;    0,000
777,485;55804,359;  232,504;    0,000
778,051;55808,898;  235,978;    0,000
778,618;55746,234;  236,768;    0,000
779,184;55683,285;  233,546;    0,000
779,750;55633,609;  232,536;    0,000
780,317;55620,047;  234,851;    0,000
780,883;55597,570;  229,439;    0,000
781,449;55556,938;  228,476;    0,000
782,015;55446,961;  229,833;    0,000
782,581;55365,113;  232,019;    0,000
783,147;55358,965;  236,782;    0,000
783,713;55262,000;  238,406;    0,000
784,279;55155,598;  241,429;    0,000
784,845;54998,504;  240,041;    0,000
785,411;54929,758;  243,343;    0,000
785,977;54874,281;  238,812;    0,000
786,542;54866,332;  240,275;    0,000
787,108;54747,199;  240,417;    0,000
787,674;54727,250;  239,449;    0,000
788,239;54689,617;  237,405;    0,000
788,805;54685,184;  238,727;    0,000
789,371;54656,547;  237,589;    0,000
789,936;54604,715;  238,830;    0,000
790,501;54521,066;  238,814;    0,000
791,067;54482,262;  237,998;    0,000
791,632;54378,941;  234,741;    0,000
792,198;54316,980;  235,129;    0,000
792,763;54253,816;  233,158;    0,000
793,328;54196,625;  231,396;    0,000
793,893;54160,465;  228,522;    0,000
794,458;54137,156;  225,048;    0,000
795,024;54093,094;  225,206;    0,000
795,589;54050,805;  225,859;    0,000
796,154;53984,527;  223,248;    0,000
796,719;53920,906;  223,590;    0,000
797,284;53841,875;  223,660;    0,000
797,848;53782,625;  224,112;    0,000
798,413;53682,520;  226,977;    0,000
798,978;53586,887;  229,005;    0,000
799,543;53482,980;  228,090;    0,000
800,108;53389,563;  230,094;    0,000
800,672;53333,527;  231,323;    0,000
801,237;53280,535;  231,008;    0,000
801,801;53206,074;  235,200;    0,000
802,366;53179,496;  234,892;    0,000
802,930;53073,449;  232,145;    0,000
803,495;52969,328;  238,275;    0,000
804,059;52832,352;  238,431;    0,000
804,624;52627,004;  237,756;    0,000
805,188;52425,527;  238,060;    0,000
805,752;52187,738;  236,802;    0,000
806,317;51969,418;  234,891;    0,000
806,881;51852,156;  236,899;    0,000
807,445;51751,422;  230,858;    0,000
808,009;51671,172;  231,987;    0,000
808,573;51616,625;  233,258;    0,000
809,137;51548,605;  233,104;    0,000
809,701;51561,457;  233,049;    0,000
810,265;51503,395;  231,842;    0,000
810,829;51382,359;  227,584;    0,000
811,393;51271,957;  228,269;    0,000
811,956;51149,406;  224,552;    0,000
812,520;51060,090;  221,271;    0,000
813,084;50945,738;  217,529;    0,000
813,647;50805,934;  215,274;    0,000
814,211;50670,402;  216,708;    0,000
814,775;50599,938;  217,350;    0,000
815,338;50499,988;  219,455;    0,000
815,902;50380,355;  219,377;    0,000
816,465;50264,094;  221,132;    0,000
817,029;50167,988;  224,254;    0,000
817,592;50030,824;  222,554;    0,000
818,155;49925,008;  226,002;    0,000
818,718;49749,172;  227,508;    0,000
819,282;49612,840;  225,424;    0,000
819,845;49508,547;  228,889;    0,000
820,408;49327,984;  229,960;    0,000
820,971;49117,523;  231,107;    0,000
821,534;48914,461;  236,602;    0,000
822,097;48715,156;  233,057;    0,000
822,660;48576,836;  234,239;    0,000
823,223;48400,445;  233,434;    0,000
823,786;48182,352;  230,461;    0,000
824,349;47990,406;  228,685;    0,000
824,911;47793,602;  223,821;    0,000
825,474;47631,965;  222,253;    0,000
826,037;47495,676;  224,450;    0,000
826,599;47331,656;  226,851;    0,000
827,162;47200,309;  227,611;    0,000
827,724;47141,875;  226,382;    0,000
828,287;47087,512;  228,899;    0,000
828,849;47008,793;  231,111;    0,000
829,412;46898,285;  231,830;    0,000
829,974;46736,754;  231,897;    0,000
830,536;46573,563;  227,686;    0,000
831,099;46357,141;  226,495;    0,000
831,661;46177,992;  229,581;    0,000
832,223;46031,203;  228,140;    0,000
832,785;45928,098;  226,943;    0,000
833,347;45863,965;  223,548;    0,000
833,909;45781,672;  221,826;    0,000
834,471;45728,324;  225,598;    0,000
835,033;45698,832;  226,557;    0,000
835,595;45592,383;  227,485;    0,000
836,157;45447,363;  229,588;    0,000
836,719;45301,590;  230,188;    0,000
837,281;45137,113;  230,429;    0,000
837,842;45046,680;  233,375;    0,000
838,404;44951,328;  230,963;    0,000
838,966;44853,969;  229,123;    0,000
839,527;44782,676;  223,262;    0,000
840,089;44710,641;  217,217;    0,000
840,650;44653,324;  217,485;    0,000
841,212;44609,773;  217,210;    0,000
841,773;44505,297;  212,860;    0,000
842,335;44381,008;  209,262;    0,000
842,896;44238,273;  209,367;    0,000
843,457;44107,352;  212,416;    0,000
844,018;43979,477;  218,072;    0,000
844,580;43784,043;  218,978;    0,000
845,141;43534,438;  217,723;    0,000
845,702;43316,789;  218,589;    0,000
846,263;43109,797;  221,644;    0,000
846,824;42956,605;  220,837;    0,000
847,385;42779,246;  220,625;    0,000
847,946;42607,398;  215,786;    0,000
848,507;42520,234;  218,610;    0,000
849,068;42431,543;  216,085;    0,000
849,628;42330,223;  211,449;    0,000
850,189;42209,434;  205,528;    0,000
850,750;42105,254;  206,811;    0,000
851,310;42004,023;  204,676;    0,000
851,871;41944,188;  205,028;    0,000
852,432;41838,695;  198,534;    0,000
852,992;41750,762;  203,449;    0,000
853,552;41643,758;  204,902;    0,000
854,113;41548,340;  209,414;    0,000
854,673;41431,246;  208,582;    0,000
855,234;41328,598;  208,415;    0,000
855,794;41198,465;  213,995;    0,000
856,354;41085,188;  213,423;    0,000
856,914;40990,969;  211,564;    0,000
857,474;40910,621;  212,196;    0,000
858,034;40878,617;  212,799;    0,000
858,595;40869,395;  215,144;    0,000
859,155;40811,090;  214,486;    0,000
859,714;40799,141;  209,880;    0,000
860,274;40821,766;  212,705;    0,000
860,834;40841,188;  212,379;    0,000
861,394;40878,199;  212,302;    0,000
861,954;40885,320;  211,598;    0,000
862,514;40860,172;  210,691;    0,000
863,073;40844,652;  213,722;    0,000
863,633;40796,707;  212,891;    0,000
864,192;40710,656;  210,689;    0,000
864,752;40646,566;  209,199;    0,000
865,311;40566,117;  208,288;    0,000
865,871;40497,340;  205,683;    0,000
866,430;40430,320;  204,574;    0,000
866,990;40416,387;  201,914;    0,000
867,549;40349,797;  201,525;    0,000
868,108;40309,219;  203,232;    0,000
868,667;40249,629;  204,611;    0,000
869,227;40186,367;  207,483;    0,000
869,786;40107,148;  209,208;    0,000
870,345;40024,328;  207,517;    0,000
870,904;39894,465;  203,678;    0,000
871,463;39823,359;  202,104;    0,000
872,022;39787,469;  202,946;    0,000
872,581;39754,965;  200,013;    0,000
873,140;39710,027;  194,955;    0,000
873,698;39686,496;  193,143;    0,000
874,257;39727,703;  193,468;    0,000
874,816;39791,648;  194,948;    0,000
875,374;39836,805;  195,803;    0,000
875,933;39820,020;  192,751;    0,000
876,492;39807,633;  195,932;    0,000
877,050;39811,977;  194,929;    0,000
877,609;39778,160;  195,626;    0,000
878,167;39692,633;  192,221;    0,000
878,725;39574,961;  194,023;    0,000
879,284;39503,531;  196,801;    0,000
879,842;39384,148;  194,839;    0,000
880,400;39277,445;  196,182;    0,000
880,958;39170,363;  196,298;    0,000
881,517;39078,402;  197,416;    0,000
882,075;39028,219;  201,511;    0,000
882,633;38973,363;  200,106;    0,000
883,191;38950,133;  199,201;    0,000
883,749;38981,246;  200,656;    0,000
884,307;38958,234;  202,009;    0,000
884,865;38945,418;  204,322;    0,000
885,422;38950,902;  202,072;    0,000
885,980;38944,746;  203,992;    0,000
886,538;38957,262;  205,883;    0,000
887,095;38912,875;  205,609;    0,000
887,653;38889,418;  204,133;    0,000
888,211;38898,988;  205,678;    0,000
888,768;38908,488;  207,231;    0,000
889,326;38926,246;  209,058;    0,000
889,883;38918,391;  207,308;    0,000
890,441;38945,563;  206,746;    0,000
890,998;38980,203;  209,438;    0,000
891,555;38955,934;  215,592;    0,000
892,112;38894,531;  210,616;    0,000
892,670;38842,563;  213,531;    0,000
893,227;38722,531;  211,803;    0,000
893,784;38612,160;  211,318;    0,000
894,341;38481,961;  214,995;    0,000
894,898;38287,277;  211,581;    0,000
895,455;38145,777;  210,065;    0,000
896,012;38019,363;  210,223;    0,000
896,569;37887,746;  207,255;    0,000
897,126;37804,676;  210,205;    0,000
897,682;37711,762;  210,839;    0,000
898,239;37632,934;  208,949;    0,000
898,796;37576,719;  210,133;    0,000
899,352;37491,762;  209,989;    0,000
899,909;37425,547;  211,693;    0,000
900,466;37351,660;  213,306;    0,000
901,022;37243,488;  214,936;    0,000
901,579;37095,934;  214,448;    0,000
902,135;36907,617;  212,922;    0,000
902,691;36736,691;  214,362;    0,000
903,248;36556,176;  213,655;    0,000
903,804;36356,875;  212,333;    0,000
904,360;36121,875;  211,808;    0,000
904,916;35916,547;  209,473;    0,000
905,472;35697,734;  210,672;    0,000
906,028;35514,020;  210,831;    0,000
906,584;35300,418;  208,488;    0,000
907,140;35157,160;  208,052;    0,000
907,696;35039,348;  207,505;    0,000
908,252;34925,305;  206,938;    0,000
908,808;34794,176;  205,415;    0,000
909,364;34694,520;  206,212;    0,000
909,920;34565,477;  207,193;    0,000
910,475;34460,691;  206,481;    0,000
911,031;34315,633;  206,818;    0,000
911,587;34181,789;  204,205;    0,000
912,142;34065,004;  202,702;    0,000
912,698;33972,105;  203,679;    0,000
913,253;33879,090;  199,116;    0,000
913,808;33788,746;  198,301;    0,000
914,364;33679,832;  196,593;    0,000
914,919;33579,648;  199,152;    0,000
915,474;33488,977;  203,879;    0,000
916,030;33420,789;  202,706;    0,000
916,585;33323,891;  202,881;    0,000
917,140;33270,246;  203,733;    0,000
917,695;33206,531;  200,922;    0,000
918,250;33164,820;  202,375;    0,000
918,805;33111,402;  197,023;    0,000
919,360;32981,133;  194,792;    0,000
919,915;32880,832;  197,021;    0,000
920,469;32812,820;  198,139;    0,000
921,024;32681,146;  198,038;    0,000
921,579;32587,818;  200,676;    0,000
922,134;32505,990;  200,002;    0,000
922,688;32397,418;  202,786;    0,000
923,243;32366,477;  205,515;    0,000
923,797;32297,961;  204,035;    0,000
924,352;32214,391;  204,322;    0,000
924,906;32116,689;  205,568;    0,000
925,461;31984,119;  205,309;    0,000
926,015;31861,047;  202,242;    0,000
926,569;31748,977;  200,212;    0,000
927,124;31626,404;  200,593;    0,000
927,678;31502,762;  202,859;    0,000
928,232;31350,861;  202,076;    0,000
928,786;31231,033;  201,123;    0,000
929,340;31131,232;  203,869;    0,000
929,894;31004,332;  205,491;    0,000
930,448;30906,176;  207,492;    0,000
931,002;30829,662;  207,396;    0,000
931,556;30769,789;  205,768;    0,000
932,110;30743,262;  201,841;    0,000
932,663;30717,689;  201,971;    0,000
933,217;30662,805;  200,338;    0,000
933,771;30592,318;  202,885;    0,000
934,324;30502,275;  202,963;    0,000
934,878;30329,891;  198,058;    0,000
935,432;30154,219;  199,585;    0,000
935,985;29926,961;  202,416;    0,000
936,538;29725,104;  204,139;    0,000
937,092;29572,977;  202,976;    0,000
937,645;29433,232;  200,878;    0,000
938,198;29308,732;  202,681;    0,000
938,752;29275,904;  208,393;    0,000
939,305;29186,447;  208,148;    0,000
939,858;29181,248;  208,961;    0,000
940,411;29119,990;  210,145;    0,000
940,964;29042,162;  210,751;    0,000
941,517;28967,918;  213,065;    0,000
942,070;28880,748;  212,641;    0,000
942,623;28723,789;  209,458;    0,000
943,176;28629,732;  209,573;    0,000
943,728;28477,133;  208,258;    0,000
944,281;28333,020;  204,818;    0,000
944,834;28209,762;  205,989;    0,000
945,387;28083,977;  203,591;    0,000
945,939;27996,533;  201,319;    0,000
946,492;27902,262;  201,376;    0,000
947,044;27786,104;  200,701;    0,000
947,597;27697,375;  200,166;    0,000
948,149;27607,361;  200,548;    0,000
948,701;27530,490;  199,722;    0,000
949,254;27521,977;  202,352;    0,000
949,806;27483,576;  203,593;    0,000
950,358;27493,875;  205,059;    0,000
950,910;27466,576;  204,118;    0,000
951,462;27391,176;  202,639;    0,000
952,014;27335,762;  204,869;    0,000
952,566;27227,275;  202,698;    0,000
953,118;27066,020;  201,818;    0,000
953,670;26886,918;  199,145;    0,000
954,222;26691,061;  196,979;    0,000
954,774;26537,818;  196,936;    0,000
955,326;26417,775;  197,469;    0,000
955,877;26321,289;  196,769;    0,000
956,429;26253,732;  200,098;    0,000
956,981;26184,418;  200,093;    0,000
957,532;26128,404;  201,002;    0,000
958,084;26058,133;  201,536;    0,000
958,635;25958,205;  204,051;    0,000
959,187;25857,289;  206,759;    0,000
959,738;25730,375;  207,136;    0,000
960,289;25599,146;  207,635;    0,000
960,840;25430,775;  205,733;    0,000
961,392;25289,533;  209,435;    0,000
961,943;25134,146;  205,886;    0,000
962,494;24987,832;  204,815;    0,000
963,045;24865,391;  202,815;    0,000
963,596;24763,305;  202,466;    0,000
964,147;24641,990;  199,959;    0,000
964,698;24548,434;  200,381;    0,000
965,249;24431,490;  198,676;    0,000
965,800;24323,604;  198,108;    0,000
966,350;24242,604;  199,271;    0,000
966,901;24136,305;  197,022;    0,000
967,452;23999,447;  194,105;    0,000
968,002;23855,504;  194,813;    0,000
968,553;23729,619;  195,785;    0,000
969,103;23594,119;  194,262;    0,000
969,654;23440,590;  197,573;    0,000
970,204;23255,904;  193,316;    0,000
970,755;23092,604;  198,635;    0,000
971,305;22951,646;  196,475;    0,000
971,855;22822,004;  197,563;    0,000
972,405;22687,504;  198,476;    0,000
972,956;22560,305;  198,329;    0,000
973,506;22448,348;  195,188;    0,000
974,056;22356,361;  199,055;    0,000
974,606;22270,020;  196,771;    0,000
975,156;22175,275;  202,006;    0,000
975,706;22068,861;  200,901;    0,000
976,255;21951,977;  198,085;    0,000
976,805;21820,689;  194,115;    0,000
977,355;21704,719;  193,511;    0,000
977,905;21587,918;  190,249;    0,000
978,454;21433,162;  186,708;    0,000
979,004;21306,604;  186,169;    0,000
979,554;21184,232;  181,323;    0,000
980,103;21063,662;  183,672;    0,000
980,653;20955,561;  187,109;    0,000
981,202;20828,547;  189,989;    0,000
981,751;20699,447;  190,483;    0,000
982,301;20570,418;  192,135;    0,000
982,850;20431,133;  192,056;    0,000
983,399;20309,818;  195,139;    0,000
983,948;20180,176;  192,845;    0,000
984,497;20067,289;  192,408;    0,000
985,047;19974,020;  192,701;    0,000
985,596;19872,619;  190,479;    0,000
986,144;19814,361;  191,313;    0,000
986,693;19751,762;  190,216;    0,000
987,242;19696,633;  189,391;    0,000
987,791;19662,520;  187,878;    0,000
988,340;19604,348;  187,055;    0,000
988,888;19522,232;  185,666;    0,000
989,437;19445,561;  187,833;    0,000
989,986;19350,676;  187,305;    0,000
990,534;19231,633;  189,511;    0,000
991,083;19084,818;  188,602;    0,000
991,631;18941,590;  194,181;    0,000
992,180;18793,146;  192,253;    0,000
992,728;18702,061;  194,729;    0,000
993,276;18596,020;  194,772;    0,000
993,825;18482,891;  197,686;    0,000
994,373;18375,762;  195,889;    0,000
994,921;18264,404;  198,619;    0,000
995,469;18123,418;  194,948;    0,000
996,017;17973,861;  197,799;    0,000
996,565;17788,947;  195,386;    0,000
997,113;17631,447;  194,233;    0,000
997,661;17473,805;  195,701;    0,000
998,209;17327,520;  193,923;    0,000
998,757;17189,361;  194,433;    0,000
999,304;17047,490;  198,521;    0,000
999,852;16914,604;  198,102;    0,000
1000,400;16764,891;  200,345;    0,000
1000,947;16611,676;  202,122;    0,000
1001,495;16439,461;  199,105;    0,000
1002,042;16273,290;  201,096;    0,000
1002,590;16127,962;  201,802;    0,000
1003,137;15989,076;  201,246;    0,000
1003,684;15876,447;  205,853;    0,000
1004,232;15769,562;  205,866;    0,000
1004,779;15653,232;  204,868;    0,000
1005,326;15553,047;  204,949;    0,000
1005,873;15443,104;  205,993;    0,000
1006,420;15314,490;  208,981;    0,000
1006,967;15186,661;  203,853;    0,000
1007,514;15053,090;  200,048;    0,000
1008,061;14928,490;  198,576;    0,000
1008,608;14820,247;  200,879;    0,000
1009,155;14711,933;  203,512;    0,000
1009,702;14616,962;  200,036;    0,000
1010,248;14519,305;  197,241;    0,000
1010,795;14408,047;  199,646;    0,000
1011,342;14276,533;  203,321;    0,000
1011,888;14142,933;  207,002;    0,000
1012,435;14002,204;  205,935;    0,000
1012,981;13876,890;  205,785;    0,000
1013,528;13761,390;  210,649;    0,000
1014,074;13645,704;  211,203;    0,000
1014,620;13556,076;  214,266;    0,000
1015,166;13466,433;  213,948;    0,000
1015,713;13378,861;  213,669;    0,000
1016,259;13289,247;  212,485;    0,000
1016,805;13195,519;  208,745;    0,000
1017,351;13084,104;  208,248;    0,000
1017,897;12971,219;  205,171;    0,000
1018,443;12862,361;  201,905;    0,000
1018,989;12759,404;  198,913;    0,000
1019,535;12641,890;  195,983;    0,000
1020,080;12524,390;  196,713;    0,000
1020,626;12383,118;  199,155;    0,000
1021,172;12234,547;  196,982;    0,000
1021,717;12077,661;  196,409;    0,000
1022,263;11923,219;  199,171;    0,000
1022,809;11779,333;  199,549;    0,000
1023,354;11658,790;  204,042;    0,000
1023,900;11524,590;  200,485;    0,000
1024,445;11416,547;  197,875;    0,000
1024,990;11291,747;  198,491;    0,000
1025,536;11176,847;  199,736;    0,000
1026,081;11053,347;  196,598;    0,000
1026,626;10915,633;  195,008;    0,000
1027,171;10776,232;  190,711;    0,000
1027,716;10645,033;  195,075;    0,000
1028,261;10506,076;  194,342;    0,000
1028,806;10395,333;  195,149;    0,000
1029,351;10286,547;  194,293;    0,000
1029,896;10184,390;  198,786;    0,000
1030,441;10093,690;  198,806;    0,000
1030,985; 9982,462;  198,338;    0,000
1031,530; 9878,062;  196,731;    0,000
1032,075; 9775,504;  196,178;    0,000
1032,619; 9669,161;  200,828;    0,000
1033,164; 9561,904;  198,722;    0,000
1033,708; 9444,433;  196,279;    0,000
1034,253; 9322,462;  195,459;    0,000
1034,797; 9227,118;  196,476;    0,000
1035,341; 9139,033;  196,176;    0,000
1035,886; 9039,990;  198,575;    0,000
1036,430; 8939,090;  193,261;    0,000
1036,974; 8852,633;  199,781;    0,000
1037,518; 8759,618;  198,938;    0,000
1038,062; 8655,305;  199,306;    0,000
1038,606; 8540,219;  199,698;    0,000
1039,150; 8412,547;  197,595;    0,000
1039,694; 8298,047;  198,072;    0,000
1040,238; 8188,547;  197,332;    0,000
1040,782; 8067,947;  192,828;    0,000
1041,326; 7957,418;  194,282;    0,000
1041,869; 7862,904;  197,628;    0,000
1042,413; 7763,062;  198,241;    0,000
1042,957; 7663,647;  202,171;    0,000
1043,500; 7553,547;  200,459;    0,000
1044,044; 7428,404;  201,346;    0,000
1044,587; 7307,918;  201,756;    0,000
1045,130; 7188,633;  202,998;    0,000
1045,674; 7063,176;  200,305;    0,000
1046,217; 6955,947;  202,883;    0,000
1046,760; 6855,604;  201,263;    0,000
1047,304; 6768,276;  201,275;    0,000
1047,847; 6687,918;  202,502;    0,000
1048,390; 6613,476;  204,491;    0,000
1048,933; 6549,818;  203,545;    0,000
1049,476; 6479,361;  206,341;    0,000
1050,019; 6404,090;  205,258;    0,000
1050,562; 6331,947;  206,332;    0,000
1051,104; 6251,976;  208,866;    0,000
1051,647; 6187,047;  212,155;    0,000
1052,190; 6117,375;  215,566;    0,000
1052,732; 6032,333;  213,151;    0,000
1053,275; 5951,733;  209,453;    0,000
1053,818; 5865,690;  207,208;    0,000
1054,360; 5776,019;  207,191;    0,000
1054,902; 5689,818;  209,083;    0,000
1055,445; 5589,318;  203,278;    0,000
1055,987; 5500,847;  202,881;    0,000
1056,530; 5419,804;  204,958;    0,000
1057,072; 5353,304;  206,759;    0,000
1057,614; 5286,676;  203,476;    0,000
1058,156; 5230,590;  206,599;    0,000
1058,698; 5155,647;  203,358;    0,000
1059,240; 5090,918;  206,353;    0,000
1059,782; 5015,990;  203,668;    0,000
1060,324; 4938,433;  203,211;    0,000
1060,866; 4864,133;  205,362;    0,000
1061,408; 4788,947;  209,819;    0,000
1061,949; 4713,461;  209,153;    0,000
1062,491; 4651,490;  209,405;    0,000
1063,033; 4594,404;  209,529;    0,000
1063,574; 4536,833;  208,592;    0,000
1064,116; 4476,619;  206,232;    0,000
1064,657; 4415,662;  205,076;    0,000
1065,199; 4360,790;  207,033;    0,000
1065,740; 4297,504;  206,936;    0,000
1066,281; 4242,019;  209,778;    0,000
1066,823; 4183,704;  205,196;    0,000
1067,364; 4128,676;  208,968;    0,000
1067,905; 4076,190;  213,685;    0,000
1068,446; 4017,576;  212,301;    0,000
1068,987; 3959,062;  210,768;    0,000
1069,528; 3911,904;  209,179;    0,000
1070,069; 3862,833;  211,116;    0,000
1070,610; 3811,676;  212,905;    0,000
1071,151; 3765,719;  208,663;    0,000
1071,692; 3722,418;  206,752;    0,000
1072,232; 3681,890;  205,788;    0,000
1072,773; 3644,661;  204,421;    0,000
1073,314; 3596,119;  203,598;    0,000
1073,854; 3546,533;  200,458;    0,000
1074,395; 3497,776;  200,966;    0,000
1074,935; 3448,990;  202,371;    0,000
1075,476; 3399,504;  200,971;    0,000
1076,016; 3354,576;  202,911;    0,000
1076,556; 3302,761;  203,479;    0,000
1077,097; 3265,890;  205,328;    0,000
1077,637; 3232,247;  205,439;    0,000
1078,177; 3197,176;  203,913;    0,000
1078,717; 3162,390;  204,766;    0,000
1079,257; 3133,933;  206,941;    0,000
1079,797; 3106,076;  210,331;    0,000
1080,337; 3081,261;  210,848;    0,000
1080,877; 3045,576;  208,226;    0,000
1081,417; 3013,361;  207,406;    0,000
1081,956; 2976,047;  207,436;    0,000
1082,496; 2937,947;  205,606;    0,000
1083,036; 2902,776;  204,488;    0,000
1083,575; 2857,376;  200,176;    0,000
1084,115; 2821,261;  197,792;    0,000
1084,655; 2788,619;  199,815;    0,000
1085,194; 2758,576;  201,346;    0,000
1085,733; 2736,776;  203,708;    0,000
1086,273; 2717,190;  205,421;    0,000
1086,812; 2699,204;  209,239;    0,000
1087,351; 2685,504;  211,091;    0,000
1087,890; 2661,647;  210,099;    0,000
1088,429; 2640,047;  210,881;    0,000
1088,969; 2606,861;  208,909;    0,000
1089,507; 2574,690;  209,501;    0,000
1090,047; 2539,176;  209,315;    0,000
1090,585; 2497,033;  203,596;    0,000
1091,124; 2460,819;  203,602;    0,000
1091,663; 2425,604;  206,195;    0,000
1092,202; 2390,576;  207,848;    0,000
1092,740; 2359,490;  208,743;    0,000
1093,279; 2327,104;  206,413;    0,000
1093,818; 2292,719;  205,158;    0,000
1094,356; 2265,961;  208,232;    0,000
1094,895; 2232,918;  206,805;    0,000
1095,433; 2199,490;  204,838;    0,000
1095,971; 2167,304;  203,221;    0,000
1096,510; 2136,576;  201,822;    0,000
1097,048; 2110,019;  200,842;    0,000
1097,586; 2083,876;  201,033;    0,000
1098,124; 2056,990;  200,926;    0,000
1098,662; 2033,447;  203,608;    0,000
1099,200; 2011,090;  204,806;    0,000
1099,738; 1986,276;  204,136;    0,000
1100,276; 1969,519;  208,125;    0,000

