1A
Integration time [ms]:   0,100
Averaging Nr. [scans]: 10
Smoothing Nr. [pixels]: 3
Data measured with spectrometer [name]: 7516255SP
Wave   ;Sample   ;Dark     ;Reference
[nm]   ;[counts] ;[counts] ;[counts] 

177,229;  258,682;  248,380;    0,000
177,829;  254,927;  245,964;    0,000
178,430;  260,574;  248,373;    0,000
179,030;  255,557;  250,642;    0,000
179,630;  256,419;  253,151;    0,000
180,230;  252,647;  249,422;    0,000
180,830;  255,197;  253,310;    0,000
181,430;  249,096;  249,852;    0,000
182,030;  255,105;  255,348;    0,000
182,630;  252,727;  252,722;    0,000
183,230;  256,402;  256,133;    0,000
183,830;  254,505;  255,035;    0,000
184,430;  260,507;  260,918;    0,000
185,030;  265,110;  265,794;    0,000
185,630;  272,706;  273,281;    0,000
186,229;  275,606;  276,549;    0,000
186,829;  277,209;  284,113;    0,000
187,429;  276,314;  284,655;    0,000
188,029;  278,551;  293,060;    0,000
188,628;  280,638;  296,144;    0,000
189,228;  281,772;  298,286;    0,000
189,828;  274,633;  301,049;    0,000
190,428;  270,597;  304,825;    0,000
191,027;  267,577;  307,658;    0,000
191,627;  269,851;  310,938;    0,000
192,227;  266,047;  308,449;    0,000
192,826;  264,552;  309,456;    0,000
193,426;  261,467;  305,352;    0,000
194,025;  269,237;  304,269;    0,000
194,625;  270,786;  297,290;    0,000
195,224;  273,995;  291,007;    0,000
195,824;  271,711;  284,067;    0,000
196,423;  278,156;  284,210;    0,000
197,023;  272,248;  273,975;    0,000
197,622;  277,818;  277,388;    0,000
198,221;  274,437;  271,407;    0,000
198,821;  274,540;  270,071;    0,000
199,420;  273,227;  267,807;    0,000
200,019;  271,747;  265,581;    0,000
200,619;  271,704;  266,708;    0,000
201,218;  275,699;  269,307;    0,000
201,817;  269,828;  262,689;    0,000
202,416;  276,828;  269,320;    0,000
203,016;  275,029;  267,603;    0,000
203,615;  276,820;  269,316;    0,000
204,214;  277,198;  268,581;    0,000
204,813;  276,977;  269,417;    0,000
205,412;  277,806;  270,504;    0,000
206,011;  278,719;  271,061;    0,000
206,610;  270,576;  262,624;    0,000
207,209;  268,247;  260,034;    0,000
207,808;  269,151;  263,300;    0,000
208,407;  270,118;  265,099;    0,000
209,006;  265,209;  259,918;    0,000
209,605;  269,019;  263,852;    0,000
210,204;  266,590;  261,611;    0,000
210,803;  267,911;  263,763;    0,000
211,402;  269,800;  267,671;    0,000
212,001;  269,429;  265,171;    0,000
212,599;  271,518;  265,613;    0,000
213,198;  271,039;  264,736;    0,000
213,797;  265,981;  258,824;    0,000
214,396;  268,241;  262,628;    0,000
214,994;  267,023;  259,891;    0,000
215,593;  268,470;  258,874;    0,000
216,192;  265,109;  256,996;    0,000
216,790;  264,927;  258,235;    0,000
217,389;  267,173;  262,211;    0,000
217,988;  270,915;  265,618;    0,000
218,586;  270,801;  261,907;    0,000
219,185;  270,490;  262,217;    0,000
219,783;  267,728;  261,125;    0,000
220,382;  270,192;  263,945;    0,000
220,980;  271,093;  265,514;    0,000
221,579;  273,336;  265,657;    0,000
222,177;  271,226;  265,160;    0,000
222,776;  268,555;  265,216;    0,000
223,374;  270,426;  267,622;    0,000
223,972;  272,859;  268,758;    0,000
224,571;  272,543;  266,607;    0,000
225,169;  271,380;  266,183;    0,000
225,767;  269,538;  263,128;    0,000
226,366;  272,445;  264,716;    0,000
226,964;  275,616;  265,381;    0,000
227,562;  274,001;  264,573;    0,000
228,160;  275,974;  266,307;    0,000
228,758;  272,872;  263,099;    0,000
229,356;  275,095;  264,018;    0,000
229,955;  273,803;  263,643;    0,000
230,553;  271,596;  262,812;    0,000
231,151;  267,884;  260,474;    0,000
231,749;  270,530;  261,002;    0,000
232,347;  269,222;  261,471;    0,000
232,945;  268,931;  263,359;    0,000
233,543;  268,003;  263,245;    0,000
234,141;  264,991;  259,740;    0,000
234,739;  267,506;  260,786;    0,000
235,337;  269,337;  266,127;    0,000
235,934;  269,271;  268,009;    0,000
236,532;  271,604;  269,234;    0,000
237,130;  274,571;  269,912;    0,000
237,728;  276,199;  271,060;    0,000
238,326;  281,909;  277,127;    0,000
238,923;  277,482;  273,391;    0,000
239,521;  278,163;  270,594;    0,000
240,119;  273,583;  264,347;    0,000
240,716;  274,249;  263,320;    0,000
241,314;  271,746;  260,868;    0,000
241,912;  264,998;  255,973;    0,000
242,509;  270,630;  260,687;    0,000
243,107;  273,002;  265,030;    0,000
243,704;  270,767;  263,643;    0,000
244,302;  277,429;  270,353;    0,000
244,899;  274,955;  268,025;    0,000
245,497;  281,853;  272,907;    0,000
246,094;  281,623;  270,101;    0,000
246,692;  275,166;  264,182;    0,000
247,289;  270,442;  258,082;    0,000
247,887;  275,531;  261,108;    0,000
248,484;  274,298;  261,014;    0,000
249,081;  271,482;  256,929;    0,000
249,679;  266,460;  254,140;    0,000
250,276;  267,940;  257,478;    0,000
250,873;  269,130;  257,489;    0,000
251,470;  276,831;  264,509;    0,000
252,067;  270,459;  257,864;    0,000
252,665;  267,887;  256,501;    0,000
253,262;  270,974;  261,268;    0,000
253,859;  273,740;  264,566;    0,000
254,456;  278,627;  266,818;    0,000
255,053;  276,276;  264,252;    0,000
255,650;  277,114;  264,688;    0,000
256,247;  279,071;  266,436;    0,000
256,844;  278,725;  262,412;    0,000
257,441;  284,279;  265,346;    0,000
258,038;  277,057;  256,555;    0,000
258,635;  279,131;  259,146;    0,000
259,232;  278,985;  258,136;    0,000
259,829;  277,205;  258,534;    0,000
260,426;  278,829;  260,226;    0,000
261,022;  281,258;  265,937;    0,000
261,619;  277,947;  263,246;    0,000
262,216;  282,027;  267,582;    0,000
262,813;  276,472;  263,416;    0,000
263,409;  276,779;  266,190;    0,000
264,006;  277,284;  263,910;    0,000
264,603;  280,830;  266,458;    0,000
265,199;  279,919;  266,212;    0,000
265,796;  276,239;  262,638;    0,000
266,393;  282,965;  270,051;    0,000
266,989;  284,687;  268,950;    0,000
267,586;  286,394;  269,445;    0,000
268,182;  286,707;  271,811;    0,000
268,779;  287,790;  271,297;    0,000
269,375;  291,302;  272,459;    0,000
269,971;  286,389;  269,812;    0,000
270,568;  282,859;  267,102;    0,000
271,164;  278,693;  265,667;    0,000
271,761;  279,814;  266,079;    0,000
272,357;  275,945;  262,751;    0,000
272,953;  273,002;  262,804;    0,000
273,550;  271,517;  263,553;    0,000
274,146;  279,017;  268,732;    0,000
274,742;  280,088;  267,040;    0,000
275,338;  280,889;  266,953;    0,000
275,934;  284,414;  269,701;    0,000
276,531;  281,620;  268,661;    0,000
277,127;  279,192;  266,833;    0,000
277,723;  276,062;  263,505;    0,000
278,319;  270,710;  260,610;    0,000
278,915;  274,502;  265,702;    0,000
279,511;  267,200;  261,135;    0,000
280,107;  265,312;  261,223;    0,000
280,703;  267,998;  261,557;    0,000
281,299;  267,879;  260,275;    0,000
281,895;  267,965;  260,898;    0,000
282,491;  266,651;  261,025;    0,000
283,086;  265,731;  260,856;    0,000
283,682;  270,717;  265,149;    0,000
284,278;  271,205;  263,061;    0,000
284,874;  266,994;  262,221;    0,000
285,470;  272,319;  268,220;    0,000
286,065;  272,547;  268,543;    0,000
286,661;  276,513;  271,852;    0,000
287,257;  271,148;  266,128;    0,000
287,852;  274,038;  269,122;    0,000
288,448;  272,611;  268,736;    0,000
289,044;  273,830;  267,845;    0,000
289,639;  271,172;  264,108;    0,000
290,235;  267,646;  261,245;    0,000
290,830;  266,024;  258,763;    0,000
291,426;  264,263;  256,138;    0,000
292,021;  264,860;  256,966;    0,000
292,617;  261,964;  252,863;    0,000
293,212;  261,813;  253,676;    0,000
293,807;  259,592;  251,590;    0,000
294,403;  265,267;  257,176;    0,000
294,998;  267,192;  259,197;    0,000
295,593;  266,954;  259,471;    0,000
296,189;  264,587;  257,496;    0,000
296,784;  263,178;  257,071;    0,000
297,379;  265,157;  258,813;    0,000
297,974;  268,355;  260,428;    0,000
298,570;  260,284;  252,022;    0,000
299,165;  257,706;  250,170;    0,000
299,760;  257,247;  250,522;    0,000
300,355;  260,671;  254,216;    0,000
300,950;  262,269;  256,042;    0,000
301,545;  262,898;  256,334;    0,000
302,140;  260,797;  255,723;    0,000
302,735;  263,963;  257,293;    0,000
303,330;  269,384;  259,781;    0,000
303,925;  270,408;  258,770;    0,000
304,520;  271,596;  258,857;    0,000
305,115;  270,282;  260,265;    0,000
305,709;  269,743;  258,280;    0,000
306,304;  267,525;  256,457;    0,000
306,899;  265,556;  255,726;    0,000
307,494;  266,580;  257,195;    0,000
308,089;  263,969;  253,993;    0,000
308,683;  266,000;  252,905;    0,000
309,278;  265,188;  249,781;    0,000
309,873;  270,062;  253,016;    0,000
310,467;  277,420;  257,138;    0,000
311,062;  284,604;  259,829;    0,000
311,656;  283,591;  256,316;    0,000
312,251;  290,039;  262,499;    0,000
312,846;  287,448;  260,375;    0,000
313,440;  293,203;  265,566;    0,000
314,035;  291,720;  262,472;    0,000
314,629;  292,793;  264,036;    0,000
315,223;  295,411;  266,656;    0,000
315,818;  298,514;  268,905;    0,000
316,412;  296,426;  265,768;    0,000
317,006;  299,775;  266,867;    0,000
317,601;  298,247;  264,141;    0,000
318,195;  304,617;  268,583;    0,000
318,789;  304,553;  267,468;    0,000
319,384;  307,829;  267,626;    0,000
319,978;  305,412;  264,087;    0,000
320,572;  312,005;  266,422;    0,000
321,166;  317,465;  270,525;    0,000
321,760;  320,232;  271,064;    0,000
322,354;  319,528;  268,470;    0,000
322,948;  321,140;  266,232;    0,000
323,542;  318,459;  262,171;    0,000
324,136;  322,412;  263,390;    0,000
324,730;  324,553;  263,056;    0,000
325,324;  325,216;  258,546;    0,000
325,918;  327,569;  257,352;    0,000
326,512;  331,855;  257,260;    0,000
327,106;  336,112;  260,163;    0,000
327,700;  335,159;  258,710;    0,000
328,294;  340,652;  262,356;    0,000
328,887;  339,703;  260,123;    0,000
329,481;  340,780;  260,701;    0,000
330,075;  345,178;  260,312;    0,000
330,669;  343,156;  256,986;    0,000
331,262;  339,579;  252,608;    0,000
331,856;  344,953;  252,427;    0,000
332,449;  344,899;  249,961;    0,000
333,043;  352,021;  253,043;    0,000
333,637;  350,663;  248,985;    0,000
334,230;  350,016;  247,576;    0,000
334,824;  351,609;  248,912;    0,000
335,417;  354,504;  249,551;    0,000
336,011;  354,763;  249,473;    0,000
336,604;  348,886;  243,618;    0,000
337,197;  346,199;  239,138;    0,000
337,791;  345,889;  241,150;    0,000
338,384;  344,845;  240,818;    0,000
338,977;  347,083;  239,483;    0,000
339,571;  344,905;  236,886;    0,000
340,164;  346,514;  235,665;    0,000
340,757;  357,007;  242,840;    0,000
341,350;  357,702;  242,880;    0,000
341,943;  361,401;  240,909;    0,000
342,537;  361,486;  238,109;    0,000
343,130;  363,007;  235,497;    0,000
343,723;  370,108;  237,841;    0,000
344,316;  373,462;  235,469;    0,000
344,909;  375,370;  233,252;    0,000
345,502;  384,038;  237,004;    0,000
346,095;  387,900;  238,174;    0,000
346,688;  395,991;  242,384;    0,000
347,281;  404,147;  241,916;    0,000
347,874;  408,870;  241,894;    0,000
348,466;  417,757;  249,562;    0,000
349,059;  425,775;  251,577;    0,000
349,652;  424,466;  246,126;    0,000
350,245;  429,834;  245,978;    0,000
350,838;  433,915;  244,679;    0,000
351,430;  439,332;  248,030;    0,000
352,023;  442,803;  244,793;    0,000
352,616;  445,354;  239,239;    0,000
353,208;  447,449;  239,597;    0,000
353,801;  461,641;  244,491;    0,000
354,393;  470,012;  245,289;    0,000
354,986;  478,194;  246,962;    0,000
355,578;  484,395;  246,807;    0,000
356,171;  494,156;  251,427;    0,000
356,763;  503,982;  255,434;    0,000
357,356;  509,014;  253,357;    0,000
357,948;  513,078;  250,493;    0,000
358,541;  523,321;  251,416;    0,000
359,133;  531,702;  251,927;    0,000
359,725;  536,871;  249,585;    0,000
360,318;  540,031;  246,151;    0,000
360,910;  547,594;  244,801;    0,000
361,502;  557,072;  244,266;    0,000
362,094;  560,712;  244,408;    0,000
362,686;  560,977;  239,185;    0,000
363,279;  562,296;  236,351;    0,000
363,871;  576,713;  241,677;    0,000
364,463;  583,025;  243,320;    0,000
365,055;  585,136;  241,634;    0,000
365,647;  588,540;  242,106;    0,000
366,239;  592,889;  240,313;    0,000
366,831;  602,401;  244,023;    0,000
367,423;  609,130;  246,456;    0,000
368,015;  607,892;  243,213;    0,000
368,607;  615,335;  243,993;    0,000
369,198;  623,911;  246,042;    0,000
369,790;  626,652;  244,907;    0,000
370,382;  629,847;  245,851;    0,000
370,974;  631,907;  243,277;    0,000
371,565;  636,391;  242,518;    0,000
372,157;  636,744;  240,254;    0,000
372,749;  638,093;  240,618;    0,000
373,341;  634,889;  234,984;    0,000
373,932;  645,616;  241,550;    0,000
374,524;  652,587;  243,270;    0,000
375,115;  655,634;  244,316;    0,000
375,707;  663,184;  247,594;    0,000
376,298;  672,170;  251,831;    0,000
376,890;  676,879;  253,240;    0,000
377,481;  686,213;  256,774;    0,000
378,073;  680,204;  250,168;    0,000
378,664;  684,928;  251,531;    0,000
379,255;  689,959;  252,147;    0,000
379,847;  687,927;  250,619;    0,000
380,438;  686,823;  247,796;    0,000
381,029;  687,270;  246,816;    0,000
381,620;  688,346;  244,288;    0,000
382,212;  693,791;  245,604;    0,000
382,803;  695,493;  243,854;    0,000
383,394;  699,378;  243,309;    0,000
383,985;  705,568;  240,939;    0,000
384,576;  715,314;  244,389;    0,000
385,167;  717,540;  242,575;    0,000
385,758;  724,237;  245,111;    0,000
386,349;  727,685;  243,712;    0,000
386,940;  735,272;  247,607;    0,000
387,531;  743,816;  252,439;    0,000
388,122;  752,569;  256,493;    0,000
388,713;  756,920;  252,911;    0,000
389,304;  770,218;  255,892;    0,000
389,895;  780,751;  257,693;    0,000
390,485;  800,904;  268,292;    0,000
391,076;  812,046;  265,205;    0,000
391,667;  825,879;  266,486;    0,000
392,258;  836,689;  265,736;    0,000
392,848;  853,149;  269,066;    0,000
393,439;  862,540;  266,276;    0,000
394,030;  874,134;  264,516;    0,000
394,620;  884,096;  260,640;    0,000
395,211;  899,500;  261,828;    0,000
395,801;  912,534;  259,375;    0,000
396,392;  924,632;  257,600;    0,000
396,982;  939,532;  255,339;    0,000
397,573;  962,557;  260,162;    0,000
398,163;  985,801;  261,856;    0,000
398,753; 1001,269;  256,216;    0,000
399,344; 1015,170;  255,062;    0,000
399,934; 1027,863;  251,800;    0,000
400,524; 1050,743;  254,322;    0,000
401,115; 1070,487;  255,700;    0,000
401,705; 1084,405;  250,461;    0,000
402,295; 1099,740;  250,508;    0,000
402,885; 1119,548;  250,221;    0,000
403,475; 1144,755;  250,185;    0,000
404,065; 1173,635;  251,519;    0,000
404,655; 1195,776;  249,740;    0,000
405,245; 1216,918;  246,981;    0,000
405,835; 1248,754;  253,258;    0,000
406,425; 1277,381;  255,007;    0,000
407,015; 1301,017;  256,960;    0,000
407,605; 1325,728;  259,085;    0,000
408,195; 1348,998;  262,687;    0,000
408,785; 1373,053;  262,663;    0,000
409,375; 1398,318;  265,668;    0,000
409,965; 1425,439;  266,054;    0,000
410,554; 1453,520;  266,891;    0,000
411,144; 1480,840;  270,053;    0,000
411,734; 1508,910;  270,397;    0,000
412,324; 1530,035;  268,015;    0,000
412,913; 1556,618;  268,299;    0,000
413,503; 1586,591;  271,981;    0,000
414,092; 1604,694;  272,467;    0,000
414,682; 1624,333;  271,922;    0,000
415,271; 1644,427;  268,236;    0,000
415,861; 1658,433;  265,582;    0,000
416,450; 1684,279;  268,319;    0,000
417,040; 1703,659;  268,633;    0,000
417,629; 1719,005;  266,235;    0,000
418,219; 1733,441;  262,710;    0,000
418,808; 1747,464;  261,422;    0,000
419,397; 1762,370;  260,415;    0,000
419,986; 1783,672;  265,594;    0,000
420,576; 1800,074;  267,100;    0,000
421,165; 1814,104;  268,885;    0,000
421,754; 1819,643;  264,798;    0,000
422,343; 1837,219;  267,904;    0,000
422,932; 1850,526;  264,405;    0,000
423,521; 1863,679;  265,502;    0,000
424,111; 1872,988;  258,886;    0,000
424,700; 1885,499;  259,019;    0,000
425,289; 1895,591;  256,699;    0,000
425,878; 1907,893;  259,392;    0,000
426,466; 1909,956;  256,014;    0,000
427,055; 1916,148;  258,622;    0,000
427,644; 1925,499;  259,672;    0,000
428,233; 1932,359;  264,083;    0,000
428,822; 1932,522;  260,465;    0,000
429,411; 1936,982;  260,750;    0,000
429,999; 1945,702;  262,128;    0,000
430,588; 1947,131;  260,544;    0,000
431,177; 1948,527;  259,795;    0,000
431,766; 1951,103;  260,753;    0,000
432,354; 1957,369;  260,748;    0,000
432,943; 1954,226;  258,111;    0,000
433,531; 1954,661;  257,433;    0,000
434,120; 1958,631;  254,996;    0,000
434,708; 1968,489;  255,948;    0,000
435,297; 1978,107;  258,099;    0,000
435,885; 1976,593;  253,315;    0,000
436,474; 1972,850;  248,315;    0,000
437,062; 1978,893;  246,455;    0,000
437,650; 1983,314;  246,416;    0,000
438,239; 1985,633;  244,101;    0,000
438,827; 1988,370;  241,945;    0,000
439,415; 1986,026;  237,557;    0,000
440,003; 1999,302;  241,542;    0,000
440,592; 2011,890;  244,478;    0,000
441,180; 2028,010;  248,450;    0,000
441,768; 2039,852;  245,871;    0,000
442,356; 2050,453;  249,567;    0,000
442,944; 2062,720;  252,979;    0,000
443,532; 2085,551;  255,930;    0,000
444,120; 2095,588;  249,975;    0,000
444,708; 2109,107;  249,633;    0,000
445,296; 2119,977;  245,660;    0,000
445,884; 2135,127;  249,389;    0,000
446,472; 2152,263;  247,887;    0,000
447,060; 2172,273;  245,555;    0,000
447,647; 2186,941;  244,988;    0,000
448,235; 2209,417;  250,613;    0,000
448,823; 2224,318;  249,174;    0,000
449,411; 2244,275;  252,970;    0,000
449,998; 2262,293;  248,784;    0,000
450,586; 2278,489;  247,208;    0,000
451,173; 2299,771;  250,824;    0,000
451,761; 2324,119;  250,938;    0,000
452,349; 2351,000;  250,993;    0,000
452,936; 2380,802;  254,525;    0,000
453,524; 2407,277;  252,976;    0,000
454,111; 2434,829;  255,591;    0,000
454,698; 2472,038;  258,294;    0,000
455,286; 2503,540;  260,011;    0,000
455,873; 2531,083;  261,239;    0,000
456,461; 2561,715;  262,133;    0,000
457,048; 2585,342;  258,698;    0,000
457,635; 2617,144;  262,088;    0,000
458,222; 2653,382;  263,287;    0,000
458,810; 2686,912;  266,463;    0,000
459,397; 2708,519;  257,990;    0,000
459,984; 2744,604;  260,569;    0,000
460,571; 2771,038;  256,247;    0,000
461,158; 2810,533;  253,638;    0,000
461,745; 2846,701;  251,734;    0,000
462,332; 2884,568;  250,932;    0,000
462,919; 2927,196;  248,508;    0,000
463,506; 2988,034;  258,477;    0,000
464,093; 3029,469;  255,464;    0,000
464,680; 3079,228;  257,617;    0,000
465,267; 3135,205;  263,426;    0,000
465,853; 3181,189;  260,970;    0,000
466,440; 3230,993;  262,505;    0,000
467,027; 3271,514;  263,808;    0,000
467,614; 3313,529;  259,329;    0,000
468,200; 3367,479;  263,092;    0,000
468,787; 3419,084;  261,737;    0,000
469,374; 3467,126;  260,891;    0,000
469,960; 3524,750;  263,888;    0,000
470,547; 3581,171;  262,031;    0,000
471,133; 3638,558;  257,284;    0,000
471,720; 3698,123;  256,917;    0,000
472,306; 3757,930;  257,644;    0,000
472,893; 3814,641;  258,089;    0,000
473,479; 3878,741;  261,826;    0,000
474,065; 3936,730;  260,896;    0,000
474,652; 3996,685;  262,724;    0,000
475,238; 4063,626;  265,230;    0,000
475,824; 4120,881;  260,808;    0,000
476,410; 4184,103;  262,634;    0,000
476,997; 4253,036;  264,502;    0,000
477,583; 4312,562;  260,916;    0,000
478,169; 4374,845;  261,974;    0,000
478,755; 4438,788;  262,301;    0,000
479,341; 4492,220;  258,638;    0,000
479,927; 4553,447;  259,911;    0,000
480,513; 4618,279;  255,849;    0,000
481,099; 4672,458;  253,465;    0,000
481,685; 4732,292;  253,179;    0,000
482,271; 4794,243;  253,007;    0,000
482,857; 4852,460;  246,490;    0,000
483,443; 4922,860;  252,079;    0,000
484,028; 4980,721;  247,732;    0,000
484,614; 5031,856;  247,765;    0,000
485,200; 5086,491;  243,439;    0,000
485,786; 5139,628;  240,957;    0,000
486,371; 5201,140;  242,400;    0,000
486,957; 5257,071;  246,578;    0,000
487,543; 5308,646;  246,197;    0,000
488,128; 5373,281;  250,206;    0,000
488,714; 5431,078;  251,568;    0,000
489,299; 5494,506;  259,992;    0,000
489,885; 5558,154;  258,537;    0,000
490,470; 5615,529;  257,390;    0,000
491,055; 5659,679;  254,111;    0,000
491,641; 5706,421;  255,055;    0,000
492,226; 5759,271;  260,389;    0,000
492,811; 5800,756;  254,750;    0,000
493,397; 5844,869;  254,919;    0,000
493,982; 5880,696;  256,648;    0,000
494,567; 5917,665;  256,162;    0,000
495,152; 5964,352;  258,532;    0,000
495,738; 6002,757;  254,086;    0,000
496,323; 6031,102;  251,843;    0,000
496,908; 6076,470;  254,065;    0,000
497,493; 6107,149;  250,812;    0,000
498,078; 6142,602;  251,709;    0,000
498,663; 6161,134;  250,125;    0,000
499,248; 6185,913;  248,506;    0,000
499,833; 6209,045;  247,788;    0,000
500,417; 6227,801;  242,695;    0,000
501,002; 6251,959;  242,193;    0,000
501,587; 6270,456;  238,914;    0,000
502,172; 6288,171;  239,588;    0,000
502,757; 6325,001;  238,194;    0,000
503,341; 6354,586;  241,729;    0,000
503,926; 6371,612;  240,716;    0,000
504,511; 6385,612;  240,903;    0,000
505,095; 6411,110;  248,322;    0,000
505,680; 6430,223;  250,122;    0,000
506,264; 6460,542;  257,819;    0,000
506,849; 6460,415;  251,368;    0,000
507,433; 6474,154;  253,752;    0,000
508,018; 6491,667;  257,965;    0,000
508,602; 6519,026;  261,651;    0,000
509,186; 6521,267;  259,215;    0,000
509,771; 6531,180;  256,574;    0,000
510,355; 6543,208;  252,093;    0,000
510,939; 6563,041;  255,325;    0,000
511,524; 6586,060;  254,618;    0,000
512,108; 6616,917;  252,347;    0,000
512,692; 6635,466;  253,454;    0,000
513,276; 6656,850;  246,569;    0,000
513,860; 6682,688;  251,344;    0,000
514,444; 6701,250;  245,930;    0,000
515,028; 6721,638;  250,616;    0,000
515,612; 6733,071;  245,847;    0,000
516,196; 6746,523;  246,873;    0,000
516,780; 6764,909;  247,062;    0,000
517,364; 6779,603;  249,719;    0,000
517,948; 6807,123;  250,687;    0,000
518,532; 6829,071;  254,527;    0,000
519,115; 6849,179;  251,718;    0,000
519,699; 6884,189;  259,501;    0,000
520,283; 6907,944;  261,003;    0,000
520,867; 6933,619;  260,760;    0,000
521,450; 6962,500;  261,295;    0,000
522,034; 6982,582;  261,988;    0,000
522,617; 6995,940;  262,194;    0,000
523,201; 7015,367;  265,138;    0,000
523,784; 7017,792;  258,227;    0,000
524,368; 7030,387;  257,385;    0,000
524,951; 7049,445;  258,779;    0,000
525,535; 7070,044;  259,987;    0,000
526,118; 7092,981;  259,487;    0,000
526,702; 7120,417;  257,499;    0,000
527,285; 7166,081;  261,842;    0,000
527,868; 7206,012;  262,851;    0,000
528,451; 7253,232;  263,683;    0,000
529,035; 7299,528;  262,356;    0,000
529,618; 7337,745;  261,786;    0,000
530,201; 7385,311;  262,815;    0,000
530,784; 7428,159;  263,076;    0,000
531,367; 7461,436;  263,668;    0,000
531,950; 7497,848;  263,956;    0,000
532,533; 7532,592;  266,343;    0,000
533,116; 7570,126;  272,031;    0,000
533,699; 7607,295;  270,042;    0,000
534,282; 7642,189;  265,975;    0,000
534,865; 7680,628;  265,056;    0,000
535,448; 7724,624;  259,457;    0,000
536,030; 7781,671;  260,227;    0,000
536,613; 7841,292;  258,261;    0,000
537,196; 7894,870;  250,764;    0,000
537,778; 7965,369;  253,173;    0,000
538,361; 8027,428;  255,563;    0,000
538,944; 8095,030;  257,692;    0,000
539,526; 8175,335;  264,423;    0,000
540,109; 8253,405;  267,570;    0,000
540,691; 8326,514;  267,620;    0,000
541,274; 8422,641;  271,078;    0,000
541,856; 8499,279;  271,170;    0,000
542,439; 8598,208;  275,525;    0,000
543,021; 8688,634;  273,547;    0,000
543,603; 8773,971;  272,220;    0,000
544,186; 8863,516;  268,326;    0,000
544,768; 8952,386;  270,325;    0,000
545,350; 9030,112;  269,367;    0,000
545,932; 9123,280;  268,234;    0,000
546,515; 9201,574;  265,942;    0,000
547,097; 9295,591;  265,698;    0,000
547,679; 9389,985;  267,069;    0,000
548,261; 9489,075;  271,534;    0,000
548,843; 9594,252;  269,930;    0,000
549,425; 9687,880;  269,030;    0,000
550,007; 9793,802;  271,009;    0,000
550,589; 9893,338;  270,362;    0,000
551,171; 9987,482;  270,839;    0,000
551,752;10090,074;  265,105;    0,000
552,334;10182,693;  260,576;    0,000
552,916;10277,356;  261,238;    0,000
553,498;10377,585;  260,454;    0,000
554,079;10476,015;  256,369;    0,000
554,661;10594,610;  255,012;    0,000
555,243;10717,912;  255,472;    0,000
555,824;10831,774;  255,996;    0,000
556,406;10954,018;  254,216;    0,000
556,987;11074,656;  251,841;    0,000
557,569;11200,110;  251,488;    0,000
558,150;11327,394;  256,323;    0,000
558,732;11461,240;  259,544;    0,000
559,313;11587,726;  259,289;    0,000
559,894;11724,966;  257,912;    0,000
560,476;11856,515;  258,311;    0,000
561,057;11988,111;  258,022;    0,000
561,638;12126,200;  261,086;    0,000
562,219;12241,960;  254,565;    0,000
562,801;12350,216;  252,044;    0,000
563,382;12485,920;  252,728;    0,000
563,963;12613,531;  255,558;    0,000
564,544;12748,866;  254,343;    0,000
565,125;12889,703;  251,563;    0,000
565,706;13040,062;  252,219;    0,000
566,287;13196,705;  253,565;    0,000
566,868;13352,026;  250,874;    0,000
567,449;13494,341;  251,190;    0,000
568,030;13637,289;  248,971;    0,000
568,610;13776,704;  251,542;    0,000
569,191;13922,057;  254,743;    0,000
569,772;14062,078;  252,371;    0,000
570,353;14210,228;  250,584;    0,000
570,933;14381,679;  251,704;    0,000
571,514;14544,414;  248,239;    0,000
572,094;14700,475;  247,208;    0,000
572,675;14859,099;  244,184;    0,000
573,256;15038,050;  246,226;    0,000
573,836;15208,479;  243,062;    0,000
574,417;15381,401;  245,329;    0,000
574,997;15551,256;  250,444;    0,000
575,577;15720,140;  252,240;    0,000
576,158;15900,426;  255,950;    0,000
576,738;16086,226;  261,059;    0,000
577,318;16266,590;  260,621;    0,000
577,898;16459,777;  264,233;    0,000
578,479;16664,701;  264,338;    0,000
579,059;16838,266;  259,650;    0,000
579,639;17023,838;  260,547;    0,000
580,219;17205,633;  258,823;    0,000
580,799;17389,139;  254,051;    0,000
581,379;17564,074;  249,415;    0,000
581,959;17728,352;  247,527;    0,000
582,539;17886,021;  249,237;    0,000
583,119;18046,563;  247,717;    0,000
583,699;18226,883;  247,045;    0,000
584,279;18386,213;  245,597;    0,000
584,859;18547,756;  250,336;    0,000
585,438;18718,977;  251,422;    0,000
586,018;18879,844;  251,537;    0,000
586,598;19048,809;  250,061;    0,000
587,177;19231,426;  250,660;    0,000
587,757;19383,301;  251,752;    0,000
588,337;19557,512;  253,612;    0,000
588,916;19727,973;  252,747;    0,000
589,496;19855,902;  251,183;    0,000
590,075;20009,012;  254,184;    0,000
590,654;20151,771;  253,285;    0,000
591,234;20275,969;  253,104;    0,000
591,813;20418,164;  253,109;    0,000
592,393;20559,271;  250,467;    0,000
592,972;20700,766;  248,901;    0,000
593,551;20859,391;  253,295;    0,000
594,130;21001,990;  252,929;    0,000
594,710;21130,781;  256,140;    0,000
595,289;21282,574;  256,350;    0,000
595,868;21395,943;  254,909;    0,000
596,447;21522,932;  257,732;    0,000
597,026;21635,014;  259,218;    0,000
597,605;21728,711;  259,170;    0,000
598,184;21822,613;  253,643;    0,000
598,763;21934,461;  253,969;    0,000
599,342;22038,697;  254,811;    0,000
599,920;22113,438;  254,227;    0,000
600,499;22186,699;  257,179;    0,000
601,078;22245,691;  254,611;    0,000
601,657;22311,846;  254,015;    0,000
602,236;22354,855;  258,225;    0,000
602,814;22370,316;  255,697;    0,000
603,393;22394,494;  254,089;    0,000
603,971;22467,547;  257,703;    0,000
604,550;22521,824;  255,885;    0,000
605,128;22559,270;  255,768;    0,000
605,707;22623,990;  258,010;    0,000
606,285;22706,770;  256,517;    0,000
606,864;22794,807;  259,545;    0,000
607,442;22890,334;  261,543;    0,000
608,020;22960,520;  262,527;    0,000
608,599;23030,436;  261,153;    0,000
609,177;23152,541;  267,088;    0,000
609,755;23260,963;  262,899;    0,000
610,333;23343,633;  260,668;    0,000
610,912;23443,439;  261,503;    0,000
611,490;23503,754;  261,456;    0,000
612,068;23577,197;  257,011;    0,000
612,646;23681,604;  259,401;    0,000
613,224;23727,447;  258,192;    0,000
613,802;23771,967;  259,362;    0,000
614,380;23835,887;  262,417;    0,000
614,958;23896,961;  261,604;    0,000
615,535;23953,148;  259,556;    0,000
616,113;24007,736;  263,270;    0,000
616,691;24002,789;  260,499;    0,000
617,269;24025,166;  257,929;    0,000
617,846;24031,547;  258,597;    0,000
618,424;24024,928;  257,153;    0,000
619,002;24006,563;  257,412;    0,000
619,579;23993,352;  258,127;    0,000
620,157;23962,701;  259,895;    0,000
620,734;23946,570;  263,295;    0,000
621,312;23924,121;  263,716;    0,000
621,889;23895,607;  264,051;    0,000
622,467;23889,424;  264,926;    0,000
623,044;23887,318;  265,122;    0,000
623,621;23875,365;  266,501;    0,000
624,198;23885,344;  262,823;    0,000
624,776;23917,795;  259,284;    0,000
625,353;23964,520;  258,854;    0,000
625,930;24021,316;  258,825;    0,000
626,507;24066,139;  260,944;    0,000
627,084;24134,859;  259,324;    0,000
627,661;24204,898;  257,543;    0,000
628,238;24275,859;  258,200;    0,000
628,815;24345,807;  258,318;    0,000
629,392;24417,217;  257,186;    0,000
629,969;24491,953;  258,527;    0,000
630,546;24566,283;  257,854;    0,000
631,123;24604,051;  259,866;    0,000
631,700;24663,686;  262,100;    0,000
632,276;24719,320;  261,257;    0,000
632,853;24738,037;  265,053;    0,000
633,430;24752,848;  268,348;    0,000
634,006;24762,422;  268,139;    0,000
634,583;24777,598;  271,242;    0,000
635,160;24786,070;  271,058;    0,000
635,736;24787,590;  270,849;    0,000
636,313;24800,896;  269,367;    0,000
636,889;24842,941;  264,866;    0,000
637,466;24873,168;  266,076;    0,000
638,042;24916,400;  265,493;    0,000
638,618;24956,467;  260,950;    0,000
639,194;24989,338;  257,652;    0,000
639,771;25052,869;  254,357;    0,000
640,347;25099,053;  258,360;    0,000
640,923;25122,852;  258,692;    0,000
641,499;25150,795;  256,268;    0,000
642,075;25191,811;  255,886;    0,000
642,651;25236,596;  257,593;    0,000
643,227;25304,682;  260,449;    0,000
643,803;25336,469;  265,937;    0,000
644,379;25375,211;  264,418;    0,000
644,955;25392,883;  264,528;    0,000
645,531;25427,711;  266,136;    0,000
646,107;25443,168;  266,310;    0,000
646,683;25457,684;  261,630;    0,000
647,259;25436,756;  260,637;    0,000
647,834;25417,826;  258,141;    0,000
648,410;25408,014;  253,875;    0,000
648,986;25425,670;  253,129;    0,000
649,561;25438,828;  254,212;    0,000
650,137;25411,813;  252,304;    0,000
650,712;25378,742;  252,114;    0,000
651,288;25402,828;  253,099;    0,000
651,863;25444,629;  253,534;    0,000
652,439;25481,258;  253,932;    0,000
653,014;25528,986;  255,795;    0,000
653,589;25574,473;  250,301;    0,000
654,165;25652,543;  250,942;    0,000
654,740;25736,529;  252,702;    0,000
655,315;25784,730;  249,966;    0,000
655,890;25864,230;  252,999;    0,000
656,465;25923,502;  253,017;    0,000
657,040;25979,760;  248,400;    0,000
657,616;26036,787;  246,150;    0,000
658,191;26129,018;  247,818;    0,000
658,766;26225,660;  249,874;    0,000
659,340;26339,203;  248,099;    0,000
659,915;26420,604;  246,527;    0,000
660,490;26505,775;  245,980;    0,000
661,065;26591,404;  247,975;    0,000
661,640;26681,660;  247,348;    0,000
662,215;26753,789;  245,919;    0,000
662,789;26827,633;  246,881;    0,000
663,364;26882,861;  248,277;    0,000
663,939;26928,605;  243,695;    0,000
664,513;27004,947;  246,045;    0,000
665,088;27074,006;  245,948;    0,000
665,662;27156,264;  249,638;    0,000
666,237;27239,734;  251,479;    0,000
666,811;27319,506;  246,859;    0,000
667,385;27405,293;  248,055;    0,000
667,960;27512,906;  247,302;    0,000
668,534;27633,379;  245,849;    0,000
669,108;27730,678;  245,342;    0,000
669,683;27829,035;  242,561;    0,000
670,257;27937,779;  238,549;    0,000
670,831;28047,037;  237,278;    0,000
671,405;28189,408;  236,535;    0,000
671,979;28325,451;  235,432;    0,000
672,553;28431,752;  234,939;    0,000
673,127;28588,895;  236,778;    0,000
673,701;28736,594;  234,465;    0,000
674,275;28896,666;  234,272;    0,000
674,849;29073,037;  236,680;    0,000
675,423;29214,410;  235,712;    0,000
675,997;29352,480;  237,219;    0,000
676,570;29515,482;  236,931;    0,000
677,144;29631,568;  234,048;    0,000
677,718;29762,582;  239,117;    0,000
678,292;29886,111;  241,727;    0,000
678,865;29973,740;  241,063;    0,000
679,439;30067,525;  242,267;    0,000
680,012;30146,498;  241,816;    0,000
680,586;30208,627;  241,838;    0,000
681,159;30305,398;  242,501;    0,000
681,733;30378,041;  242,400;    0,000
682,306;30436,342;  239,225;    0,000
682,879;30524,369;  240,657;    0,000
683,453;30618,057;  240,089;    0,000
684,026;30755,428;  242,606;    0,000
684,599;30876,229;  242,043;    0,000
685,172;30991,941;  244,760;    0,000
685,745;31109,156;  244,524;    0,000
686,318;31222,143;  245,944;    0,000
686,891;31328,242;  244,057;    0,000
687,464;31427,057;  245,022;    0,000
688,037;31507,973;  244,939;    0,000
688,610;31604,072;  243,183;    0,000
689,183;31708,172;  242,404;    0,000
689,756;31816,158;  242,387;    0,000
690,329;31922,402;  240,662;    0,000
690,902;32028,115;  243,891;    0,000
691,474;32158,303;  241,976;    0,000
692,047;32327,717;  238,492;    0,000
692,620;32493,061;  243,035;    0,000
693,192;32641,203;  242,863;    0,000
693,765;32776,688;  242,311;    0,000
694,337;32903,031;  241,948;    0,000
694,910;33047,477;  242,407;    0,000
695,482;33189,375;  244,929;    0,000
696,055;33299,488;  246,681;    0,000
696,627;33429,633;  247,162;    0,000
697,199;33545,219;  241,539;    0,000
697,772;33662,520;  239,887;    0,000
698,344;33812,891;  240,238;    0,000
698,916;33955,148;  235,678;    0,000
699,488;34094,949;  233,481;    0,000
700,060;34238,164;  232,502;    0,000
700,633;34353,449;  229,934;    0,000
701,205;34488,922;  233,210;    0,000
701,777;34611,762;  236,673;    0,000
702,349;34729,051;  237,645;    0,000
702,920;34803,063;  239,883;    0,000
703,492;34880,895;  238,511;    0,000
704,064;34950,078;  237,125;    0,000
704,636;35057,438;  237,060;    0,000
705,208;35183,363;  234,116;    0,000
705,779;35362,023;  230,690;    0,000
706,351;35526,707;  230,592;    0,000
706,923;35704,723;  226,774;    0,000
707,494;35908,922;  228,590;    0,000
708,066;36122,379;  228,357;    0,000
708,638;36327,566;  226,571;    0,000
709,209;36539,738;  229,691;    0,000
709,780;36702,012;  228,023;    0,000
710,352;36884,098;  225,869;    0,000
710,923;37095,566;  230,893;    0,000
711,494;37267,453;  227,040;    0,000
712,066;37440,711;  230,141;    0,000
712,637;37599,910;  228,793;    0,000
713,208;37760,984;  229,881;    0,000
713,779;37948,898;  232,612;    0,000
714,350;38109,684;  234,140;    0,000
714,922;38234,270;  232,259;    0,000
715,492;38391,711;  234,523;    0,000
716,064;38524,883;  232,506;    0,000
716,634;38644,086;  232,442;    0,000
717,205;38759,672;  235,004;    0,000
717,776;38880,328;  234,572;    0,000
718,347;39003,184;  236,812;    0,000
718,918;39158,813;  237,204;    0,000
719,489;39265,656;  238,098;    0,000
720,059;39378,414;  238,865;    0,000
720,630;39504,313;  240,833;    0,000
721,201;39617,242;  238,909;    0,000
721,771;39762,000;  240,538;    0,000
722,342;39900,172;  241,133;    0,000
722,912;40040,031;  239,642;    0,000
723,483;40221,172;  239,604;    0,000
724,053;40412,117;  241,219;    0,000
724,623;40605,074;  239,823;    0,000
725,194;40812,672;  239,468;    0,000
725,764;40979,473;  239,967;    0,000
726,334;41177,488;  238,789;    0,000
726,904;41329,832;  235,993;    0,000
727,475;41495,531;  239,583;    0,000
728,045;41620,102;  237,339;    0,000
728,615;41792,590;  237,634;    0,000
729,185;41955,020;  238,833;    0,000
729,755;42103,660;  234,822;    0,000
730,325;42239,359;  231,614;    0,000
730,895;42418,918;  234,866;    0,000
731,465;42542,234;  230,298;    0,000
732,034;42714,203;  231,329;    0,000
732,604;42853,289;  235,100;    0,000
733,174;42978,063;  232,612;    0,000
733,744;43140,563;  234,120;    0,000
734,313;43321,234;  239,443;    0,000
734,883;43502,863;  236,824;    0,000
735,453;43752,348;  239,424;    0,000
736,022;43922,348;  237,785;    0,000
736,592;44116,250;  237,104;    0,000
737,161;44298,051;  240,513;    0,000
737,731;44458,035;  242,932;    0,000
738,300;44586,535;  240,007;    0,000
738,869;44700,320;  241,203;    0,000
739,439;44742,535;  237,089;    0,000
740,008;44830,395;  239,286;    0,000
740,577;44893,195;  237,025;    0,000
741,146;45011,895;  235,741;    0,000
741,715;45131,180;  232,914;    0,000
742,284;45239,410;  234,189;    0,000
742,853;45380,523;  235,525;    0,000
743,422;45515,980;  238,814;    0,000
743,991;45651,152;  235,422;    0,000
744,560;45785,840;  236,225;    0,000
745,129;45908,840;  234,873;    0,000
745,698;46056,738;  235,886;    0,000
746,267;46235,398;  235,688;    0,000
746,836;46384,484;  233,993;    0,000
747,404;46563,695;  236,829;    0,000
747,973;46753,324;  240,615;    0,000
748,542;46879,641;  240,500;    0,000
749,110;46974,840;  242,198;    0,000
749,679;47041,457;  242,237;    0,000
750,247;47062,742;  238,475;    0,000
750,816;47115,555;  240,612;    0,000
751,384;47131,898;  235,798;    0,000
751,952;47126,371;  234,616;    0,000
752,521;47171,000;  233,754;    0,000
753,089;47225,285;  231,118;    0,000
753,657;47279,473;  231,199;    0,000
754,225;47371,059;  234,364;    0,000
754,794;47418,473;  233,773;    0,000
755,362;47495,527;  235,392;    0,000
755,930;47594,000;  238,381;    0,000
756,498;47659,273;  237,676;    0,000
757,066;47687,402;  238,056;    0,000
757,634;47721,102;  239,277;    0,000
758,202;47678,500;  239,633;    0,000
758,769;47679,543;  242,254;    0,000
759,337;47608,188;  242,770;    0,000
759,905;47512,859;  237,417;    0,000
760,473;47519,988;  238,949;    0,000
761,041;47513,461;  236,451;    0,000
761,608;47488,660;  233,946;    0,000
762,176;47547,633;  234,538;    0,000
762,743;47559,730;  231,104;    0,000
763,311;47615,563;  227,092;    0,000
763,878;47675,934;  228,504;    0,000
764,446;47671,563;  225,817;    0,000
765,013;47701,504;  228,188;    0,000
765,581;47729,633;  229,577;    0,000
766,148;47752,648;  228,399;    0,000
766,715;47764,078;  228,065;    0,000
767,282;47818,020;  232,754;    0,000
767,849;47824,078;  231,726;    0,000
768,417;47789,090;  233,958;    0,000
768,984;47735,934;  230,974;    0,000
769,551;47647,762;  230,177;    0,000
770,118;47542,605;  227,122;    0,000
770,685;47416,691;  225,045;    0,000
771,252;47209,480;  220,230;    0,000
771,819;47115,352;  221,265;    0,000
772,385;47022,035;  218,347;    0,000
772,952;46915,879;  217,637;    0,000
773,519;46849,180;  216,848;    0,000
774,086;46759,266;  217,023;    0,000
774,652;46697,008;  217,362;    0,000
775,219;46686,023;  218,477;    0,000
775,786;46637,410;  220,400;    0,000
776,352;46560,539;  221,159;    0,000
776,919;46517,023;  230,688;    0,000
777,485;46444,840;  232,504;    0,000
778,051;46415,555;  235,978;    0,000
778,618;46333,039;  236,768;    0,000
779,184;46262,598;  233,546;    0,000
779,750;46162,195;  232,536;    0,000
780,317;46105,141;  234,851;    0,000
780,883;46049,109;  229,439;    0,000
781,449;45961,598;  228,476;    0,000
782,015;45811,953;  229,833;    0,000
782,581;45697,453;  232,019;    0,000
783,147;45640,684;  236,782;    0,000
783,713;45523,457;  238,406;    0,000
784,279;45402,555;  241,429;    0,000
784,845;45223,484;  240,041;    0,000
785,411;45137,012;  243,343;    0,000
785,977;45059,199;  238,812;    0,000
786,542;45022,473;  240,275;    0,000
787,108;44872,758;  240,417;    0,000
787,674;44787,941;  239,449;    0,000
788,239;44710,145;  237,405;    0,000
788,805;44652,973;  238,727;    0,000
789,371;44553,656;  237,589;    0,000
789,936;44446,387;  238,830;    0,000
790,501;44325,043;  238,814;    0,000
791,067;44245,430;  237,998;    0,000
791,632;44132,586;  234,741;    0,000
792,198;44043,918;  235,129;    0,000
792,763;43962,961;  233,158;    0,000
793,328;43904,902;  231,396;    0,000
793,893;43828,289;  228,522;    0,000
794,458;43759,203;  225,048;    0,000
795,024;43692,832;  225,206;    0,000
795,589;43619,875;  225,859;    0,000
796,154;43508,848;  223,248;    0,000
796,719;43437,402;  223,590;    0,000
797,284;43314,574;  223,660;    0,000
797,848;43253,375;  224,112;    0,000
798,413;43150,531;  226,977;    0,000
798,978;43030,117;  229,005;    0,000
799,543;42926,633;  228,090;    0,000
800,108;42844,992;  230,094;    0,000
800,672;42744,762;  231,323;    0,000
801,237;42651,176;  231,008;    0,000
801,801;42551,434;  235,200;    0,000
802,366;42478,891;  234,892;    0,000
802,930;42360,250;  232,145;    0,000
803,495;42227,336;  238,275;    0,000
804,059;42059,777;  238,431;    0,000
804,624;41851,922;  237,756;    0,000
805,188;41669,309;  238,060;    0,000
805,752;41454,508;  236,802;    0,000
806,317;41240,895;  234,891;    0,000
806,881;41095,266;  236,899;    0,000
807,445;40977,738;  230,858;    0,000
808,009;40880,723;  231,987;    0,000
808,573;40801,594;  233,258;    0,000
809,137;40712,680;  233,104;    0,000
809,701;40669,539;  233,049;    0,000
810,265;40583,551;  231,842;    0,000
810,829;40457,023;  227,584;    0,000
811,393;40312,938;  228,269;    0,000
811,956;40172,496;  224,552;    0,000
812,520;40051,453;  221,271;    0,000
813,084;39928,684;  217,529;    0,000
813,647;39788,883;  215,274;    0,000
814,211;39665,539;  216,708;    0,000
814,775;39595,324;  217,350;    0,000
815,338;39499,738;  219,455;    0,000
815,902;39378,156;  219,377;    0,000
816,465;39258,355;  221,132;    0,000
817,029;39133,328;  224,254;    0,000
817,592;39003,242;  222,554;    0,000
818,155;38872,270;  226,002;    0,000
818,718;38682,297;  227,508;    0,000
819,282;38543,727;  225,424;    0,000
819,845;38429,613;  228,889;    0,000
820,408;38261,344;  229,960;    0,000
820,971;38069,285;  231,107;    0,000
821,534;37874,145;  236,602;    0,000
822,097;37704,973;  233,057;    0,000
822,660;37553,816;  234,239;    0,000
823,223;37381,473;  233,434;    0,000
823,786;37180,059;  230,461;    0,000
824,349;36996,188;  228,685;    0,000
824,911;36806,945;  223,821;    0,000
825,474;36630,074;  222,253;    0,000
826,037;36472,645;  224,450;    0,000
826,599;36319,730;  226,851;    0,000
827,162;36179,473;  227,611;    0,000
827,724;36089,504;  226,382;    0,000
828,287;36004,160;  228,899;    0,000
828,849;35926,273;  231,111;    0,000
829,412;35822,848;  231,830;    0,000
829,974;35668,730;  231,897;    0,000
830,536;35505,891;  227,686;    0,000
831,099;35330,789;  226,495;    0,000
831,661;35156,176;  229,581;    0,000
832,223;35028,363;  228,140;    0,000
832,785;34913,848;  226,943;    0,000
833,347;34815,691;  223,548;    0,000
833,909;34724,820;  221,826;    0,000
834,471;34675,418;  225,598;    0,000
835,033;34606,676;  226,557;    0,000
835,595;34501,605;  227,485;    0,000
836,157;34357,348;  229,588;    0,000
836,719;34206,020;  230,188;    0,000
837,281;34056,563;  230,429;    0,000
837,842;33963,922;  233,375;    0,000
838,404;33836,750;  230,963;    0,000
838,966;33722,320;  229,123;    0,000
839,527;33641,836;  223,262;    0,000
840,089;33559,023;  217,217;    0,000
840,650;33498,492;  217,485;    0,000
841,212;33445,766;  217,210;    0,000
841,773;33326,352;  212,860;    0,000
842,335;33225,223;  209,262;    0,000
842,896;33102,109;  209,367;    0,000
843,457;32978,367;  212,416;    0,000
844,018;32863,051;  218,072;    0,000
844,580;32700,182;  218,978;    0,000
845,141;32489,523;  217,723;    0,000
845,702;32302,510;  218,589;    0,000
846,263;32114,781;  221,644;    0,000
846,824;31968,768;  220,837;    0,000
847,385;31793,396;  220,625;    0,000
847,946;31627,068;  215,786;    0,000
848,507;31532,854;  218,610;    0,000
849,068;31456,084;  216,085;    0,000
849,628;31366,084;  211,449;    0,000
850,189;31250,197;  205,528;    0,000
850,750;31156,885;  206,811;    0,000
851,310;31074,727;  204,676;    0,000
851,871;31001,213;  205,028;    0,000
852,432;30890,186;  198,534;    0,000
852,992;30776,127;  203,449;    0,000
853,552;30659,670;  204,902;    0,000
854,113;30580,113;  209,414;    0,000
854,673;30464,129;  208,582;    0,000
855,234;30360,557;  208,415;    0,000
855,794;30256,900;  213,995;    0,000
856,354;30128,072;  213,423;    0,000
856,914;30025,645;  211,564;    0,000
857,474;29941,516;  212,196;    0,000
858,034;29875,715;  212,799;    0,000
858,595;29854,359;  215,144;    0,000
859,155;29785,072;  214,486;    0,000
859,714;29736,959;  209,880;    0,000
860,274;29722,916;  212,705;    0,000
860,834;29713,330;  212,379;    0,000
861,394;29725,174;  212,302;    0,000
861,954;29690,945;  211,598;    0,000
862,514;29622,375;  210,691;    0,000
863,073;29584,133;  213,722;    0,000
863,633;29511,732;  212,891;    0,000
864,192;29438,490;  210,689;    0,000
864,752;29368,789;  209,199;    0,000
865,311;29278,047;  208,288;    0,000
865,871;29212,176;  205,683;    0,000
866,430;29155,490;  204,574;    0,000
866,990;29112,605;  201,914;    0,000
867,549;29058,963;  201,525;    0,000
868,108;28996,477;  203,232;    0,000
868,667;28923,391;  204,611;    0,000
869,227;28839,691;  207,483;    0,000
869,786;28755,635;  209,208;    0,000
870,345;28669,850;  207,517;    0,000
870,904;28561,479;  203,678;    0,000
871,463;28478,164;  202,104;    0,000
872,022;28443,379;  202,946;    0,000
872,581;28398,164;  200,013;    0,000
873,140;28356,936;  194,955;    0,000
873,698;28329,594;  193,143;    0,000
874,257;28329,736;  193,468;    0,000
874,816;28344,408;  194,948;    0,000
875,374;28336,494;  195,803;    0,000
875,933;28306,752;  192,751;    0,000
876,492;28259,736;  195,932;    0,000
877,050;28221,650;  194,929;    0,000
877,609;28174,365;  195,626;    0,000
878,167;28089,193;  192,221;    0,000
878,725;27993,180;  194,023;    0,000
879,284;27925,236;  196,801;    0,000
879,842;27823,607;  194,839;    0,000
880,400;27748,607;  196,182;    0,000
880,958;27677,494;  196,298;    0,000
881,517;27591,094;  197,416;    0,000
882,075;27535,236;  201,511;    0,000
882,633;27488,193;  200,106;    0,000
883,191;27466,123;  199,201;    0,000
883,749;27462,666;  200,656;    0,000
884,307;27436,980;  202,009;    0,000
884,865;27397,564;  204,322;    0,000
885,422;27379,908;  202,072;    0,000
885,980;27360,293;  203,992;    0,000
886,538;27335,766;  205,883;    0,000
887,095;27287,252;  205,609;    0,000
887,653;27236,236;  204,133;    0,000
888,211;27215,994;  205,678;    0,000
888,768;27198,223;  207,231;    0,000
889,326;27183,766;  209,058;    0,000
889,883;27172,564;  207,308;    0,000
890,441;27182,752;  206,746;    0,000
890,998;27175,594;  209,438;    0,000
891,555;27154,564;  215,592;    0,000
892,112;27091,736;  210,616;    0,000
892,670;27070,293;  213,531;    0,000
893,227;26979,752;  211,803;    0,000
893,784;26879,408;  211,318;    0,000
894,341;26774,523;  214,995;    0,000
894,898;26637,994;  211,581;    0,000
895,455;26527,094;  210,065;    0,000
896,012;26434,008;  210,223;    0,000
896,569;26309,594;  207,255;    0,000
897,126;26233,793;  210,205;    0,000
897,682;26143,051;  210,839;    0,000
898,239;26045,809;  208,949;    0,000
898,796;25978,236;  210,133;    0,000
899,352;25906,408;  209,989;    0,000
899,909;25838,037;  211,693;    0,000
900,466;25756,094;  213,306;    0,000
901,022;25669,779;  214,936;    0,000
901,579;25566,508;  214,448;    0,000
902,135;25431,551;  212,922;    0,000
902,691;25295,137;  214,362;    0,000
903,248;25138,236;  213,655;    0,000
903,804;24973,064;  212,333;    0,000
904,360;24811,051;  211,808;    0,000
904,916;24639,564;  209,473;    0,000
905,472;24451,309;  210,672;    0,000
906,028;24303,623;  210,831;    0,000
906,584;24151,951;  208,488;    0,000
907,140;24037,480;  208,052;    0,000
907,696;23942,723;  207,505;    0,000
908,252;23840,352;  206,938;    0,000
908,808;23745,008;  205,415;    0,000
909,364;23681,166;  206,212;    0,000
909,920;23592,793;  207,193;    0,000
910,475;23491,422;  206,481;    0,000
911,031;23373,736;  206,818;    0,000
911,587;23258,965;  204,205;    0,000
912,142;23158,580;  202,702;    0,000
912,698;23072,637;  203,679;    0,000
913,253;22981,352;  199,116;    0,000
913,808;22885,395;  198,301;    0,000
914,364;22795,551;  196,593;    0,000
914,919;22722,422;  199,152;    0,000
915,474;22641,766;  203,879;    0,000
916,030;22580,266;  202,706;    0,000
916,585;22508,236;  202,881;    0,000
917,140;22455,336;  203,733;    0,000
917,695;22396,908;  200,922;    0,000
918,250;22354,951;  202,375;    0,000
918,805;22283,051;  197,023;    0,000
919,360;22197,123;  194,792;    0,000
919,915;22112,908;  197,021;    0,000
920,469;22032,123;  198,139;    0,000
921,024;21922,252;  198,038;    0,000
921,579;21845,451;  200,676;    0,000
922,134;21770,594;  200,002;    0,000
922,688;21697,965;  202,786;    0,000
923,243;21657,123;  205,515;    0,000
923,797;21598,693;  204,035;    0,000
924,352;21525,822;  204,322;    0,000
924,906;21461,994;  205,568;    0,000
925,461;21363,594;  205,309;    0,000
926,015;21271,793;  202,242;    0,000
926,569;21178,180;  200,212;    0,000
927,124;21065,822;  200,593;    0,000
927,678;20972,236;  202,859;    0,000
928,232;20877,895;  202,076;    0,000
928,786;20777,965;  201,123;    0,000
929,340;20695,322;  203,869;    0,000
929,894;20599,365;  205,491;    0,000
930,448;20527,523;  207,492;    0,000
931,002;20473,951;  207,396;    0,000
931,556;20409,766;  205,768;    0,000
932,110;20363,166;  201,841;    0,000
932,663;20321,193;  201,971;    0,000
933,217;20273,650;  200,338;    0,000
933,771;20210,438;  202,885;    0,000
934,324;20141,166;  202,963;    0,000
934,878;20023,551;  198,058;    0,000
935,432;19888,709;  199,585;    0,000
935,985;19726,650;  202,416;    0,000
936,538;19587,895;  204,139;    0,000
937,092;19478,564;  202,976;    0,000
937,645;19374,336;  200,878;    0,000
938,198;19263,293;  202,681;    0,000
938,752;19220,223;  208,393;    0,000
939,305;19171,236;  208,148;    0,000
939,858;19148,051;  208,961;    0,000
940,411;19103,266;  210,145;    0,000
940,964;19023,637;  210,751;    0,000
941,517;18970,322;  213,065;    0,000
942,070;18912,223;  212,641;    0,000
942,623;18818,736;  209,458;    0,000
943,176;18738,379;  209,573;    0,000
943,728;18647,322;  208,258;    0,000
944,281;18543,680;  204,818;    0,000
944,834;18467,279;  205,989;    0,000
945,387;18378,322;  203,591;    0,000
945,939;18305,594;  201,319;    0,000
946,492;18216,723;  201,376;    0,000
947,044;18136,480;  200,701;    0,000
947,597;18064,994;  200,166;    0,000
948,149;17992,266;  200,548;    0,000
948,701;17931,352;  199,722;    0,000
949,254;17909,951;  202,352;    0,000
949,806;17869,895;  203,593;    0,000
950,358;17854,607;  205,059;    0,000
950,910;17805,094;  204,118;    0,000
951,462;17743,252;  202,639;    0,000
952,014;17690,908;  204,869;    0,000
952,566;17606,908;  202,698;    0,000
953,118;17491,266;  201,818;    0,000
953,670;17368,650;  199,145;    0,000
954,222;17241,137;  196,979;    0,000
954,774;17132,994;  196,936;    0,000
955,326;17035,865;  197,469;    0,000
955,877;16952,852;  196,769;    0,000
956,429;16904,293;  200,098;    0,000
956,981;16847,594;  200,093;    0,000
957,532;16795,379;  201,002;    0,000
958,084;16736,980;  201,536;    0,000
958,635;16667,279;  204,051;    0,000
959,187;16600,166;  206,759;    0,000
959,738;16516,094;  207,136;    0,000
960,289;16402,895;  207,635;    0,000
960,840;16276,766;  205,733;    0,000
961,392;16181,108;  209,435;    0,000
961,943;16063,466;  205,886;    0,000
962,494;15953,180;  204,815;    0,000
963,045;15853,837;  202,815;    0,000
963,596;15776,051;  202,466;    0,000
964,147;15692,137;  199,959;    0,000
964,698;15610,565;  200,381;    0,000
965,249;15521,708;  198,676;    0,000
965,800;15443,837;  198,108;    0,000
966,350;15381,437;  199,271;    0,000
966,901;15299,051;  197,022;    0,000
967,452;15200,994;  194,105;    0,000
968,002;15097,294;  194,813;    0,000
968,553;15021,822;  195,785;    0,000
969,103;14910,309;  194,262;    0,000
969,654;14812,051;  197,573;    0,000
970,204;14690,408;  193,316;    0,000
970,755;14588,037;  198,635;    0,000
971,305;14485,022;  196,475;    0,000
971,855;14403,294;  197,563;    0,000
972,405;14309,223;  198,476;    0,000
972,956;14238,779;  198,329;    0,000
973,506;14153,165;  195,188;    0,000
974,056;14083,979;  199,055;    0,000
974,606;14015,880;  196,771;    0,000
975,156;13955,137;  202,006;    0,000
975,706;13878,508;  200,901;    0,000
976,255;13788,365;  198,085;    0,000
976,805;13690,108;  194,115;    0,000
977,355;13613,208;  193,511;    0,000
977,905;13546,309;  190,249;    0,000
978,454;13449,594;  186,708;    0,000
979,004;13367,723;  186,169;    0,000
979,554;13284,908;  181,323;    0,000
980,103;13216,437;  183,672;    0,000
980,653;13141,723;  187,109;    0,000
981,202;13061,437;  189,989;    0,000
981,751;12981,165;  190,483;    0,000
982,301;12895,966;  192,135;    0,000
982,850;12803,080;  192,056;    0,000
983,399;12730,751;  195,139;    0,000
983,948;12652,694;  192,845;    0,000
984,497;12581,137;  192,408;    0,000
985,047;12513,680;  192,701;    0,000
985,596;12434,165;  190,479;    0,000
986,144;12385,137;  191,313;    0,000
986,693;12338,479;  190,216;    0,000
987,242;12285,665;  189,391;    0,000
987,791;12244,279;  187,878;    0,000
988,340;12199,522;  187,055;    0,000
988,888;12142,809;  185,666;    0,000
989,437;12081,223;  187,833;    0,000
989,986;12010,494;  187,305;    0,000
990,534;11925,065;  189,511;    0,000
991,083;11828,494;  188,602;    0,000
991,631;11737,522;  194,181;    0,000
992,180;11639,766;  192,253;    0,000
992,728;11565,809;  194,729;    0,000
993,276;11493,794;  194,772;    0,000
993,825;11419,880;  197,686;    0,000
994,373;11347,736;  195,889;    0,000
994,921;11279,937;  198,619;    0,000
995,469;11182,851;  194,948;    0,000
996,017;11091,880;  197,799;    0,000
996,565;10975,894;  195,386;    0,000
997,113;10872,309;  194,233;    0,000
997,661;10777,479;  195,701;    0,000
998,209;10679,351;  193,923;    0,000
998,757;10588,037;  194,433;    0,000
999,304;10496,022;  198,521;    0,000
999,852;10410,665;  198,102;    0,000
1000,400;10318,565;  200,345;    0,000
1000,947;10216,151;  202,122;    0,000
1001,495;10100,637;  199,105;    0,000
1002,042; 9997,751;  201,096;    0,000
1002,590; 9904,380;  201,802;    0,000
1003,137; 9823,766;  201,246;    0,000
1003,684; 9736,180;  205,853;    0,000
1004,232; 9656,537;  205,866;    0,000
1004,779; 9586,694;  204,868;    0,000
1005,326; 9524,451;  204,949;    0,000
1005,873; 9454,580;  205,993;    0,000
1006,420; 9376,337;  208,981;    0,000
1006,967; 9283,979;  203,853;    0,000
1007,514; 9200,151;  200,048;    0,000
1008,061; 9133,779;  198,576;    0,000
1008,608; 9058,394;  200,879;    0,000
1009,155; 8993,351;  203,512;    0,000
1009,702; 8923,923;  200,036;    0,000
1010,248; 8848,266;  197,241;    0,000
1010,795; 8777,937;  199,646;    0,000
1011,342; 8696,294;  203,321;    0,000
1011,888; 8601,837;  207,002;    0,000
1012,435; 8518,651;  205,935;    0,000
1012,981; 8432,708;  205,785;    0,000
1013,528; 8358,608;  210,649;    0,000
1014,074; 8287,508;  211,203;    0,000
1014,620; 8218,865;  214,266;    0,000
1015,166; 8160,337;  213,948;    0,000
1015,713; 8104,865;  213,669;    0,000
1016,259; 8042,223;  212,485;    0,000
1016,805; 7974,794;  208,745;    0,000
1017,351; 7906,822;  208,248;    0,000
1017,897; 7831,937;  205,171;    0,000
1018,443; 7762,908;  201,905;    0,000
1018,989; 7698,765;  198,913;    0,000
1019,535; 7624,437;  195,983;    0,000
1020,080; 7547,594;  196,713;    0,000
1020,626; 7465,308;  199,155;    0,000
1021,172; 7375,380;  196,982;    0,000
1021,717; 7278,208;  196,409;    0,000
1022,263; 7195,137;  199,171;    0,000
1022,809; 7103,537;  199,549;    0,000
1023,354; 7031,751;  204,042;    0,000
1023,900; 6951,322;  200,485;    0,000
1024,445; 6878,351;  197,875;    0,000
1024,990; 6798,765;  198,491;    0,000
1025,536; 6729,294;  199,736;    0,000
1026,081; 6640,808;  196,598;    0,000
1026,626; 6559,108;  195,008;    0,000
1027,171; 6467,022;  190,711;    0,000
1027,716; 6384,337;  195,075;    0,000
1028,261; 6295,280;  194,342;    0,000
1028,806; 6227,608;  195,149;    0,000
1029,351; 6160,479;  194,293;    0,000
1029,896; 6098,780;  198,786;    0,000
1030,441; 6039,637;  198,806;    0,000
1030,985; 5976,666;  198,338;    0,000
1031,530; 5916,166;  196,731;    0,000
1032,075; 5856,837;  196,178;    0,000
1032,619; 5794,837;  200,828;    0,000
1033,164; 5723,351;  198,722;    0,000
1033,708; 5655,080;  196,279;    0,000
1034,253; 5581,008;  195,459;    0,000
1034,797; 5518,051;  196,476;    0,000
1035,341; 5460,494;  196,176;    0,000
1035,886; 5398,565;  198,575;    0,000
1036,430; 5333,223;  193,261;    0,000
1036,974; 5286,080;  199,781;    0,000
1037,518; 5229,922;  198,938;    0,000
1038,062; 5162,894;  199,306;    0,000
1038,606; 5098,694;  199,698;    0,000
1039,150; 5022,537;  197,595;    0,000
1039,694; 4958,166;  198,072;    0,000
1040,238; 4889,894;  197,332;    0,000
1040,782; 4819,422;  192,828;    0,000
1041,326; 4750,951;  194,282;    0,000
1041,869; 4697,337;  197,628;    0,000
1042,413; 4628,522;  198,241;    0,000
1042,957; 4570,880;  202,171;    0,000
1043,500; 4502,080;  200,459;    0,000
1044,044; 4436,808;  201,346;    0,000
1044,587; 4362,751;  201,756;    0,000
1045,130; 4299,880;  202,998;    0,000
1045,674; 4231,708;  200,305;    0,000
1046,217; 4171,694;  202,883;    0,000
1046,760; 4105,223;  201,263;    0,000
1047,304; 4050,737;  201,275;    0,000
1047,847; 3995,708;  202,502;    0,000
1048,390; 3951,465;  204,491;    0,000
1048,933; 3900,308;  203,545;    0,000
1049,476; 3855,280;  206,341;    0,000
1050,019; 3803,965;  205,258;    0,000
1050,562; 3762,051;  206,332;    0,000
1051,104; 3715,022;  208,866;    0,000
1051,647; 3677,051;  212,155;    0,000
1052,190; 3635,180;  215,566;    0,000
1052,732; 3588,437;  213,151;    0,000
1053,275; 3532,794;  209,453;    0,000
1053,818; 3491,394;  207,208;    0,000
1054,360; 3442,765;  207,191;    0,000
1054,902; 3397,480;  209,083;    0,000
1055,445; 3332,551;  203,278;    0,000
1055,987; 3278,408;  202,881;    0,000
1056,530; 3231,280;  204,958;    0,000
1057,072; 3192,951;  206,759;    0,000
1057,614; 3148,080;  203,476;    0,000
1058,156; 3111,208;  206,599;    0,000
1058,698; 3064,637;  203,358;    0,000
1059,240; 3030,208;  206,353;    0,000
1059,782; 2982,937;  203,668;    0,000
1060,324; 2933,308;  203,211;    0,000
1060,866; 2890,580;  205,362;    0,000
1061,408; 2848,580;  209,819;    0,000
1061,949; 2808,537;  209,153;    0,000
1062,491; 2770,380;  209,405;    0,000
1063,033; 2733,722;  209,529;    0,000
1063,574; 2698,437;  208,592;    0,000
1064,116; 2666,937;  206,232;    0,000
1064,657; 2631,708;  205,076;    0,000
1065,199; 2598,551;  207,033;    0,000
1065,740; 2559,765;  206,936;    0,000
1066,281; 2527,908;  209,778;    0,000
1066,823; 2491,722;  205,196;    0,000
1067,364; 2461,080;  208,968;    0,000
1067,905; 2431,651;  213,685;    0,000
1068,446; 2403,465;  212,301;    0,000
1068,987; 2368,580;  210,768;    0,000
1069,528; 2337,765;  209,179;    0,000
1070,069; 2313,651;  211,116;    0,000
1070,610; 2288,294;  212,905;    0,000
1071,151; 2260,051;  208,663;    0,000
1071,692; 2234,108;  206,752;    0,000
1072,232; 2203,108;  205,788;    0,000
1072,773; 2181,522;  204,421;    0,000
1073,314; 2152,823;  203,598;    0,000
1073,854; 2121,808;  200,458;    0,000
1074,395; 2094,065;  200,966;    0,000
1074,935; 2066,665;  202,371;    0,000
1075,476; 2037,651;  200,971;    0,000
1076,016; 2015,594;  202,911;    0,000
1076,556; 1988,422;  203,479;    0,000
1077,097; 1967,837;  205,328;    0,000
1077,637; 1944,922;  205,439;    0,000
1078,177; 1921,151;  203,913;    0,000
1078,717; 1901,922;  204,766;    0,000
1079,257; 1882,808;  206,941;    0,000
1079,797; 1863,865;  210,331;    0,000
1080,337; 1841,665;  210,848;    0,000
1080,877; 1820,080;  208,226;    0,000
1081,417; 1799,180;  207,406;    0,000
1081,956; 1777,108;  207,436;    0,000
1082,496; 1753,437;  205,606;    0,000
1083,036; 1732,037;  204,488;    0,000
1083,575; 1705,580;  200,176;    0,000
1084,115; 1686,365;  197,792;    0,000
1084,655; 1670,394;  199,815;    0,000
1085,194; 1651,723;  201,346;    0,000
1085,733; 1641,765;  203,708;    0,000
1086,273; 1631,551;  205,421;    0,000
1086,812; 1622,565;  209,239;    0,000
1087,351; 1616,337;  211,091;    0,000
1087,890; 1600,794;  210,099;    0,000
1088,429; 1583,965;  210,881;    0,000
1088,969; 1562,994;  208,909;    0,000
1089,507; 1541,280;  209,501;    0,000
1090,047; 1521,708;  209,315;    0,000
1090,585; 1498,637;  203,596;    0,000
1091,124; 1474,408;  203,602;    0,000
1091,663; 1459,380;  206,195;    0,000
1092,202; 1443,151;  207,848;    0,000
1092,740; 1428,908;  208,743;    0,000
1093,279; 1414,922;  206,413;    0,000
1093,818; 1395,994;  205,158;    0,000
1094,356; 1378,565;  208,232;    0,000
1094,895; 1361,894;  206,805;    0,000
1095,433; 1341,480;  204,838;    0,000
1095,971; 1324,480;  203,221;    0,000
1096,510; 1307,651;  201,822;    0,000
1097,048; 1290,123;  200,842;    0,000
1097,586; 1274,637;  201,033;    0,000
1098,124; 1260,537;  200,926;    0,000
1098,662; 1244,651;  203,608;    0,000
1099,200; 1228,837;  204,806;    0,000
1099,738; 1214,880;  204,136;    0,000
1100,276; 1205,922;  208,125;    0,000

