0,50A
Integration time [ms]:   1,000
Averaging Nr. [scans]: 10
Smoothing Nr. [pixels]: 3
Data measured with spectrometer [name]: 7516255SP
Wave   ;Sample   ;Dark     ;Reference
[nm]   ;[counts] ;[counts] ;[counts] 

177,229;  243,669;  248,380;    0,000
177,829;  240,957;  245,964;    0,000
178,430;  246,336;  248,373;    0,000
179,030;  246,468;  250,642;    0,000
179,630;  250,007;  253,151;    0,000
180,230;  247,959;  249,422;    0,000
180,830;  253,146;  253,310;    0,000
181,430;  250,209;  249,852;    0,000
182,030;  257,676;  255,348;    0,000
182,630;  255,746;  252,722;    0,000
183,230;  260,811;  256,133;    0,000
183,830;  259,219;  255,035;    0,000
184,430;  264,172;  260,918;    0,000
185,030;  264,545;  265,794;    0,000
185,630;  268,026;  273,281;    0,000
186,229;  265,226;  276,549;    0,000
186,829;  265,786;  284,113;    0,000
187,429;  260,486;  284,655;    0,000
188,029;  260,885;  293,060;    0,000
188,628;  260,404;  296,144;    0,000
189,228;  259,513;  298,286;    0,000
189,828;  255,386;  301,049;    0,000
190,428;  255,194;  304,825;    0,000
191,027;  253,067;  307,658;    0,000
191,627;  254,154;  310,938;    0,000
192,227;  251,648;  308,449;    0,000
192,826;  251,803;  309,456;    0,000
193,426;  248,143;  305,352;    0,000
194,025;  252,624;  304,269;    0,000
194,625;  250,600;  297,290;    0,000
195,224;  250,645;  291,007;    0,000
195,824;  247,780;  284,067;    0,000
196,423;  250,784;  284,210;    0,000
197,023;  242,023;  273,975;    0,000
197,622;  248,024;  277,388;    0,000
198,221;  242,544;  271,407;    0,000
198,821;  241,818;  270,071;    0,000
199,420;  238,791;  267,807;    0,000
200,019;  238,522;  265,581;    0,000
200,619;  239,131;  266,708;    0,000
201,218;  241,867;  269,307;    0,000
201,817;  236,712;  262,689;    0,000
202,416;  242,795;  269,320;    0,000
203,016;  241,041;  267,603;    0,000
203,615;  243,728;  269,316;    0,000
204,214;  241,034;  268,581;    0,000
204,813;  242,722;  269,417;    0,000
205,412;  244,445;  270,504;    0,000
206,011;  244,357;  271,061;    0,000
206,610;  236,761;  262,624;    0,000
207,209;  233,915;  260,034;    0,000
207,808;  236,000;  263,300;    0,000
208,407;  237,460;  265,099;    0,000
209,006;  230,319;  259,918;    0,000
209,605;  232,135;  263,852;    0,000
210,204;  229,108;  261,611;    0,000
210,803;  231,165;  263,763;    0,000
211,402;  234,105;  267,671;    0,000
212,001;  233,713;  265,171;    0,000
212,599;  235,681;  265,613;    0,000
213,198;  236,953;  264,736;    0,000
213,797;  232,841;  258,824;    0,000
214,396;  237,337;  262,628;    0,000
214,994;  234,834;  259,891;    0,000
215,593;  236,805;  258,874;    0,000
216,192;  233,753;  256,996;    0,000
216,790;  232,990;  258,235;    0,000
217,389;  236,996;  262,211;    0,000
217,988;  240,416;  265,618;    0,000
218,586;  235,410;  261,907;    0,000
219,185;  236,229;  262,217;    0,000
219,783;  233,058;  261,125;    0,000
220,382;  234,879;  263,945;    0,000
220,980;  238,404;  265,514;    0,000
221,579;  237,878;  265,657;    0,000
222,177;  237,856;  265,160;    0,000
222,776;  237,990;  265,216;    0,000
223,374;  239,468;  267,622;    0,000
223,972;  240,938;  268,758;    0,000
224,571;  238,047;  266,607;    0,000
225,169;  236,597;  266,183;    0,000
225,767;  234,589;  263,128;    0,000
226,366;  235,716;  264,716;    0,000
226,964;  237,839;  265,381;    0,000
227,562;  237,162;  264,573;    0,000
228,160;  238,884;  266,307;    0,000
228,758;  238,048;  263,099;    0,000
229,356;  239,617;  264,018;    0,000
229,955;  238,459;  263,643;    0,000
230,553;  236,916;  262,812;    0,000
231,151;  233,728;  260,474;    0,000
231,749;  235,041;  261,002;    0,000
232,347;  234,499;  261,471;    0,000
232,945;  234,908;  263,359;    0,000
233,543;  233,813;  263,245;    0,000
234,141;  230,999;  259,740;    0,000
234,739;  231,117;  260,786;    0,000
235,337;  235,997;  266,127;    0,000
235,934;  237,559;  268,009;    0,000
236,532;  240,335;  269,234;    0,000
237,130;  241,342;  269,912;    0,000
237,728;  243,401;  271,060;    0,000
238,326;  249,741;  277,127;    0,000
238,923;  246,241;  273,391;    0,000
239,521;  243,940;  270,594;    0,000
240,119;  237,644;  264,347;    0,000
240,716;  237,279;  263,320;    0,000
241,314;  235,259;  260,868;    0,000
241,912;  228,541;  255,973;    0,000
242,509;  232,363;  260,687;    0,000
243,107;  237,940;  265,030;    0,000
243,704;  236,749;  263,643;    0,000
244,302;  244,380;  270,353;    0,000
244,899;  241,824;  268,025;    0,000
245,497;  246,934;  272,907;    0,000
246,094;  244,656;  270,101;    0,000
246,692;  238,566;  264,182;    0,000
247,289;  231,848;  258,082;    0,000
247,887;  235,339;  261,108;    0,000
248,484;  233,052;  261,014;    0,000
249,081;  229,258;  256,929;    0,000
249,679;  225,968;  254,140;    0,000
250,276;  229,499;  257,478;    0,000
250,873;  230,831;  257,489;    0,000
251,470;  238,673;  264,509;    0,000
252,067;  233,117;  257,864;    0,000
252,665;  233,455;  256,501;    0,000
253,262;  238,025;  261,268;    0,000
253,859;  241,969;  264,566;    0,000
254,456;  243,730;  266,818;    0,000
255,053;  239,108;  264,252;    0,000
255,650;  238,790;  264,688;    0,000
256,247;  240,528;  266,436;    0,000
256,844;  237,252;  262,412;    0,000
257,441;  240,479;  265,346;    0,000
258,038;  231,406;  256,555;    0,000
258,635;  234,820;  259,146;    0,000
259,232;  236,698;  258,136;    0,000
259,829;  236,933;  258,534;    0,000
260,426;  237,679;  260,226;    0,000
261,022;  243,097;  265,937;    0,000
261,619;  240,135;  263,246;    0,000
262,216;  244,552;  267,582;    0,000
262,813;  241,305;  263,416;    0,000
263,409;  242,327;  266,190;    0,000
264,006;  240,436;  263,910;    0,000
264,603;  243,425;  266,458;    0,000
265,199;  241,879;  266,212;    0,000
265,796;  238,325;  262,638;    0,000
266,393;  245,073;  270,051;    0,000
266,989;  243,885;  268,950;    0,000
267,586;  245,462;  269,445;    0,000
268,182;  247,070;  271,811;    0,000
268,779;  248,541;  271,297;    0,000
269,375;  249,754;  272,459;    0,000
269,971;  246,200;  269,812;    0,000
270,568;  243,157;  267,102;    0,000
271,164;  240,809;  265,667;    0,000
271,761;  240,695;  266,079;    0,000
272,357;  237,163;  262,751;    0,000
272,953;  234,118;  262,804;    0,000
273,550;  235,706;  263,553;    0,000
274,146;  241,316;  268,732;    0,000
274,742;  242,447;  267,040;    0,000
275,338;  242,262;  266,953;    0,000
275,934;  245,788;  269,701;    0,000
276,531;  245,401;  268,661;    0,000
277,127;  244,694;  266,833;    0,000
277,723;  241,067;  263,505;    0,000
278,319;  237,574;  260,610;    0,000
278,915;  238,957;  265,702;    0,000
279,511;  233,457;  261,135;    0,000
280,107;  232,243;  261,223;    0,000
280,703;  234,012;  261,557;    0,000
281,299;  232,884;  260,275;    0,000
281,895;  232,153;  260,898;    0,000
282,491;  231,279;  261,025;    0,000
283,086;  231,601;  260,856;    0,000
283,682;  237,632;  265,149;    0,000
284,278;  235,301;  263,061;    0,000
284,874;  230,808;  262,221;    0,000
285,470;  234,834;  268,220;    0,000
286,065;  234,861;  268,543;    0,000
286,661;  238,800;  271,852;    0,000
287,257;  231,835;  266,128;    0,000
287,852;  235,214;  269,122;    0,000
288,448;  236,083;  268,736;    0,000
289,044;  237,049;  267,845;    0,000
289,639;  235,365;  264,108;    0,000
290,235;  233,106;  261,245;    0,000
290,830;  230,829;  258,763;    0,000
291,426;  230,523;  256,138;    0,000
292,021;  229,211;  256,966;    0,000
292,617;  223,259;  252,863;    0,000
293,212;  223,509;  253,676;    0,000
293,807;  222,499;  251,590;    0,000
294,403;  226,857;  257,176;    0,000
294,998;  229,059;  259,197;    0,000
295,593;  228,853;  259,471;    0,000
296,189;  227,081;  257,496;    0,000
296,784;  227,748;  257,071;    0,000
297,379;  229,186;  258,813;    0,000
297,974;  228,293;  260,428;    0,000
298,570;  221,716;  252,022;    0,000
299,165;  218,988;  250,170;    0,000
299,760;  220,401;  250,522;    0,000
300,355;  224,992;  254,216;    0,000
300,950;  227,204;  256,042;    0,000
301,545;  227,496;  256,334;    0,000
302,140;  227,763;  255,723;    0,000
302,735;  229,841;  257,293;    0,000
303,330;  231,969;  259,781;    0,000
303,925;  230,979;  258,770;    0,000
304,520;  230,304;  258,857;    0,000
305,115;  230,922;  260,265;    0,000
305,709;  229,500;  258,280;    0,000
306,304;  227,242;  256,457;    0,000
306,899;  226,525;  255,726;    0,000
307,494;  228,042;  257,195;    0,000
308,089;  224,362;  253,993;    0,000
308,683;  223,953;  252,905;    0,000
309,278;  222,126;  249,781;    0,000
309,873;  225,789;  253,016;    0,000
310,467;  228,826;  257,138;    0,000
311,062;  231,642;  259,829;    0,000
311,656;  229,619;  256,316;    0,000
312,251;  235,894;  262,499;    0,000
312,846;  235,026;  260,375;    0,000
313,440;  238,879;  265,566;    0,000
314,035;  236,275;  262,472;    0,000
314,629;  238,661;  264,036;    0,000
315,223;  241,456;  266,656;    0,000
315,818;  243,631;  268,905;    0,000
316,412;  239,367;  265,768;    0,000
317,006;  239,215;  266,867;    0,000
317,601;  236,290;  264,141;    0,000
318,195;  240,071;  268,583;    0,000
318,789;  238,513;  267,468;    0,000
319,384;  238,497;  267,626;    0,000
319,978;  234,926;  264,087;    0,000
320,572;  237,737;  266,422;    0,000
321,166;  241,516;  270,525;    0,000
321,760;  242,371;  271,064;    0,000
322,354;  239,955;  268,470;    0,000
322,948;  238,191;  266,232;    0,000
323,542;  232,268;  262,171;    0,000
324,136;  232,971;  263,390;    0,000
324,730;  233,682;  263,056;    0,000
325,324;  230,093;  258,546;    0,000
325,918;  227,576;  257,352;    0,000
326,512;  226,915;  257,260;    0,000
327,106;  230,000;  260,163;    0,000
327,700;  229,306;  258,710;    0,000
328,294;  232,636;  262,356;    0,000
328,887;  230,258;  260,123;    0,000
329,481;  229,490;  260,701;    0,000
330,075;  231,673;  260,312;    0,000
330,669;  229,846;  256,986;    0,000
331,262;  226,888;  252,608;    0,000
331,856;  227,145;  252,427;    0,000
332,449;  225,838;  249,961;    0,000
333,043;  227,798;  253,043;    0,000
333,637;  225,353;  248,985;    0,000
334,230;  223,923;  247,576;    0,000
334,824;  224,656;  248,912;    0,000
335,417;  224,438;  249,551;    0,000
336,011;  226,240;  249,473;    0,000
336,604;  219,265;  243,618;    0,000
337,197;  216,123;  239,138;    0,000
337,791;  216,105;  241,150;    0,000
338,384;  216,039;  240,818;    0,000
338,977;  215,356;  239,483;    0,000
339,571;  211,205;  236,886;    0,000
340,164;  207,553;  235,665;    0,000
340,757;  215,350;  242,840;    0,000
341,350;  215,100;  242,880;    0,000
341,943;  214,352;  240,909;    0,000
342,537;  209,656;  238,109;    0,000
343,130;  207,246;  235,497;    0,000
343,723;  211,782;  237,841;    0,000
344,316;  212,774;  235,469;    0,000
344,909;  211,693;  233,252;    0,000
345,502;  214,569;  237,004;    0,000
346,095;  216,992;  238,174;    0,000
346,688;  222,393;  242,384;    0,000
347,281;  222,235;  241,916;    0,000
347,874;  221,735;  241,894;    0,000
348,466;  228,492;  249,562;    0,000
349,059;  230,764;  251,577;    0,000
349,652;  225,985;  246,126;    0,000
350,245;  225,263;  245,978;    0,000
350,838;  223,710;  244,679;    0,000
351,430;  227,516;  248,030;    0,000
352,023;  224,902;  244,793;    0,000
352,616;  218,431;  239,239;    0,000
353,208;  216,831;  239,597;    0,000
353,801;  223,884;  244,491;    0,000
354,393;  223,608;  245,289;    0,000
354,986;  225,036;  246,962;    0,000
355,578;  223,491;  246,807;    0,000
356,171;  226,157;  251,427;    0,000
356,763;  231,416;  255,434;    0,000
357,356;  230,410;  253,357;    0,000
357,948;  227,155;  250,493;    0,000
358,541;  228,978;  251,416;    0,000
359,133;  227,707;  251,927;    0,000
359,725;  226,592;  249,585;    0,000
360,318;  223,254;  246,151;    0,000
360,910;  221,387;  244,801;    0,000
361,502;  219,608;  244,266;    0,000
362,094;  218,339;  244,408;    0,000
362,686;  215,417;  239,185;    0,000
363,279;  213,230;  236,351;    0,000
363,871;  216,779;  241,677;    0,000
364,463;  219,322;  243,320;    0,000
365,055;  217,449;  241,634;    0,000
365,647;  217,738;  242,106;    0,000
366,239;  216,485;  240,313;    0,000
366,831;  218,045;  244,023;    0,000
367,423;  221,270;  246,456;    0,000
368,015;  218,177;  243,213;    0,000
368,607;  219,254;  243,993;    0,000
369,198;  221,261;  246,042;    0,000
369,790;  220,271;  244,907;    0,000
370,382;  220,804;  245,851;    0,000
370,974;  218,901;  243,277;    0,000
371,565;  217,685;  242,518;    0,000
372,157;  218,137;  240,254;    0,000
372,749;  217,803;  240,618;    0,000
373,341;  213,509;  234,984;    0,000
373,932;  219,836;  241,550;    0,000
374,524;  222,388;  243,270;    0,000
375,115;  224,511;  244,316;    0,000
375,707;  228,450;  247,594;    0,000
376,298;  232,636;  251,831;    0,000
376,890;  233,694;  253,240;    0,000
377,481;  236,646;  256,774;    0,000
378,073;  230,480;  250,168;    0,000
378,664;  232,928;  251,531;    0,000
379,255;  231,377;  252,147;    0,000
379,847;  228,053;  250,619;    0,000
380,438;  223,670;  247,796;    0,000
381,029;  222,061;  246,816;    0,000
381,620;  219,229;  244,288;    0,000
382,212;  220,761;  245,604;    0,000
382,803;  216,768;  243,854;    0,000
383,394;  218,430;  243,309;    0,000
383,985;  217,975;  240,939;    0,000
384,576;  221,491;  244,389;    0,000
385,167;  219,203;  242,575;    0,000
385,758;  220,086;  245,111;    0,000
386,349;  217,548;  243,712;    0,000
386,940;  222,926;  247,607;    0,000
387,531;  224,221;  252,439;    0,000
388,122;  224,515;  256,493;    0,000
388,713;  219,016;  252,911;    0,000
389,304;  220,202;  255,892;    0,000
389,895;  219,461;  257,693;    0,000
390,485;  227,513;  268,292;    0,000
391,076;  219,297;  265,205;    0,000
391,667;  220,024;  266,486;    0,000
392,258;  218,474;  265,736;    0,000
392,848;  220,055;  269,066;    0,000
393,439;  216,312;  266,276;    0,000
394,030;  215,375;  264,516;    0,000
394,620;  211,527;  260,640;    0,000
395,211;  213,796;  261,828;    0,000
395,801;  210,072;  259,375;    0,000
396,392;  210,563;  257,600;    0,000
396,982;  210,376;  255,339;    0,000
397,573;  215,576;  260,162;    0,000
398,163;  220,182;  261,856;    0,000
398,753;  216,921;  256,216;    0,000
399,344;  216,028;  255,062;    0,000
399,934;  214,479;  251,800;    0,000
400,524;  215,930;  254,322;    0,000
401,115;  217,901;  255,700;    0,000
401,705;  213,981;  250,461;    0,000
402,295;  212,353;  250,508;    0,000
402,885;  210,749;  250,221;    0,000
403,475;  211,895;  250,185;    0,000
404,065;  213,697;  251,519;    0,000
404,655;  211,797;  249,740;    0,000
405,245;  209,693;  246,981;    0,000
405,835;  216,167;  253,258;    0,000
406,425;  218,853;  255,007;    0,000
407,015;  222,385;  256,960;    0,000
407,605;  225,327;  259,085;    0,000
408,195;  228,247;  262,687;    0,000
408,785;  227,785;  262,663;    0,000
409,375;  229,286;  265,668;    0,000
409,965;  229,605;  266,054;    0,000
410,554;  229,905;  266,891;    0,000
411,144;  232,060;  270,053;    0,000
411,734;  231,493;  270,397;    0,000
412,324;  228,550;  268,015;    0,000
412,913;  231,280;  268,299;    0,000
413,503;  234,213;  271,981;    0,000
414,092;  234,339;  272,467;    0,000
414,682;  233,855;  271,922;    0,000
415,271;  229,208;  268,236;    0,000
415,861;  227,489;  265,582;    0,000
416,450;  230,459;  268,319;    0,000
417,040;  230,695;  268,633;    0,000
417,629;  227,967;  266,235;    0,000
418,219;  224,206;  262,710;    0,000
418,808;  224,035;  261,422;    0,000
419,397;  223,076;  260,415;    0,000
419,986;  228,408;  265,594;    0,000
420,576;  229,991;  267,100;    0,000
421,165;  230,231;  268,885;    0,000
421,754;  226,835;  264,798;    0,000
422,343;  230,767;  267,904;    0,000
422,932;  225,800;  264,405;    0,000
423,521;  227,722;  265,502;    0,000
424,111;  219,139;  258,886;    0,000
424,700;  219,052;  259,019;    0,000
425,289;  217,073;  256,699;    0,000
425,878;  220,208;  259,392;    0,000
426,466;  215,116;  256,014;    0,000
427,055;  218,655;  258,622;    0,000
427,644;  220,163;  259,672;    0,000
428,233;  226,128;  264,083;    0,000
428,822;  221,732;  260,465;    0,000
429,411;  222,409;  260,750;    0,000
429,999;  224,413;  262,128;    0,000
430,588;  223,639;  260,544;    0,000
431,177;  221,644;  259,795;    0,000
431,766;  221,975;  260,753;    0,000
432,354;  221,728;  260,748;    0,000
432,943;  219,868;  258,111;    0,000
433,531;  219,009;  257,433;    0,000
434,120;  215,906;  254,996;    0,000
434,708;  216,245;  255,948;    0,000
435,297;  220,480;  258,099;    0,000
435,885;  215,108;  253,315;    0,000
436,474;  211,030;  248,315;    0,000
437,062;  209,672;  246,455;    0,000
437,650;  209,031;  246,416;    0,000
438,239;  208,371;  244,101;    0,000
438,827;  207,633;  241,945;    0,000
439,415;  201,894;  237,557;    0,000
440,003;  208,519;  241,542;    0,000
440,592;  212,309;  244,478;    0,000
441,180;  216,910;  248,450;    0,000
441,768;  214,840;  245,871;    0,000
442,356;  218,520;  249,567;    0,000
442,944;  222,853;  252,979;    0,000
443,532;  227,238;  255,930;    0,000
444,120;  221,159;  249,975;    0,000
444,708;  219,007;  249,633;    0,000
445,296;  216,121;  245,660;    0,000
445,884;  221,652;  249,389;    0,000
446,472;  219,093;  247,887;    0,000
447,060;  217,191;  245,555;    0,000
447,647;  216,574;  244,988;    0,000
448,235;  221,643;  250,613;    0,000
448,823;  220,379;  249,174;    0,000
449,411;  223,550;  252,970;    0,000
449,998;  220,047;  248,784;    0,000
450,586;  219,305;  247,208;    0,000
451,173;  222,197;  250,824;    0,000
451,761;  221,181;  250,938;    0,000
452,349;  220,871;  250,993;    0,000
452,936;  223,815;  254,525;    0,000
453,524;  221,637;  252,976;    0,000
454,111;  222,985;  255,591;    0,000
454,698;  225,483;  258,294;    0,000
455,286;  226,491;  260,011;    0,000
455,873;  226,530;  261,239;    0,000
456,461;  229,361;  262,133;    0,000
457,048;  227,426;  258,698;    0,000
457,635;  230,442;  262,088;    0,000
458,222;  232,468;  263,287;    0,000
458,810;  237,851;  266,463;    0,000
459,397;  231,041;  257,990;    0,000
459,984;  234,958;  260,569;    0,000
460,571;  228,998;  256,247;    0,000
461,158;  226,311;  253,638;    0,000
461,745;  224,741;  251,734;    0,000
462,332;  221,968;  250,932;    0,000
462,919;  215,806;  248,508;    0,000
463,506;  225,431;  258,477;    0,000
464,093;  221,999;  255,464;    0,000
464,680;  223,896;  257,617;    0,000
465,267;  229,948;  263,426;    0,000
465,853;  228,373;  260,970;    0,000
466,440;  232,377;  262,505;    0,000
467,027;  235,409;  263,808;    0,000
467,614;  229,977;  259,329;    0,000
468,200;  235,077;  263,092;    0,000
468,787;  234,742;  261,737;    0,000
469,374;  234,174;  260,891;    0,000
469,960;  237,899;  263,888;    0,000
470,547;  235,609;  262,031;    0,000
471,133;  231,109;  257,284;    0,000
471,720;  230,595;  256,917;    0,000
472,306;  231,852;  257,644;    0,000
472,893;  231,956;  258,089;    0,000
473,479;  235,736;  261,826;    0,000
474,065;  234,860;  260,896;    0,000
474,652;  236,440;  262,724;    0,000
475,238;  238,515;  265,230;    0,000
475,824;  233,899;  260,808;    0,000
476,410;  234,411;  262,634;    0,000
476,997;  236,883;  264,502;    0,000
477,583;  234,032;  260,916;    0,000
478,169;  233,655;  261,974;    0,000
478,755;  234,591;  262,301;    0,000
479,341;  231,258;  258,638;    0,000
479,927;  235,433;  259,911;    0,000
480,513;  233,067;  255,849;    0,000
481,099;  230,969;  253,465;    0,000
481,685;  231,950;  253,179;    0,000
482,271;  233,171;  253,007;    0,000
482,857;  226,526;  246,490;    0,000
483,443;  233,375;  252,079;    0,000
484,028;  229,216;  247,732;    0,000
484,614;  228,432;  247,765;    0,000
485,200;  223,848;  243,439;    0,000
485,786;  220,837;  240,957;    0,000
486,371;  223,706;  242,400;    0,000
486,957;  228,087;  246,578;    0,000
487,543;  226,802;  246,197;    0,000
488,128;  229,952;  250,206;    0,000
488,714;  231,158;  251,568;    0,000
489,299;  240,353;  259,992;    0,000
489,885;  238,029;  258,537;    0,000
490,470;  236,225;  257,390;    0,000
491,055;  234,327;  254,111;    0,000
491,641;  236,354;  255,055;    0,000
492,226;  241,287;  260,389;    0,000
492,811;  236,302;  254,750;    0,000
493,397;  235,669;  254,919;    0,000
493,982;  237,480;  256,648;    0,000
494,567;  236,566;  256,162;    0,000
495,152;  237,397;  258,532;    0,000
495,738;  231,674;  254,086;    0,000
496,323;  228,722;  251,843;    0,000
496,908;  231,127;  254,065;    0,000
497,493;  227,429;  250,812;    0,000
498,078;  228,799;  251,709;    0,000
498,663;  227,176;  250,125;    0,000
499,248;  226,174;  248,506;    0,000
499,833;  225,859;  247,788;    0,000
500,417;  222,016;  242,695;    0,000
501,002;  220,924;  242,193;    0,000
501,587;  218,917;  238,914;    0,000
502,172;  220,286;  239,588;    0,000
502,757;  217,893;  238,194;    0,000
503,341;  221,709;  241,729;    0,000
503,926;  221,397;  240,716;    0,000
504,511;  222,913;  240,903;    0,000
505,095;  230,573;  248,322;    0,000
505,680;  229,580;  250,122;    0,000
506,264;  236,994;  257,819;    0,000
506,849;  230,220;  251,368;    0,000
507,433;  233,381;  253,752;    0,000
508,018;  237,715;  257,965;    0,000
508,602;  241,064;  261,651;    0,000
509,186;  241,354;  259,215;    0,000
509,771;  241,162;  256,574;    0,000
510,355;  237,271;  252,093;    0,000
510,939;  241,507;  255,325;    0,000
511,524;  240,085;  254,618;    0,000
512,108;  236,860;  252,347;    0,000
512,692;  237,389;  253,454;    0,000
513,276;  228,405;  246,569;    0,000
513,860;  231,596;  251,344;    0,000
514,444;  226,284;  245,930;    0,000
515,028;  231,642;  250,616;    0,000
515,612;  228,168;  245,847;    0,000
516,196;  229,914;  246,873;    0,000
516,780;  229,618;  247,062;    0,000
517,364;  234,111;  249,719;    0,000
517,948;  236,044;  250,687;    0,000
518,532;  240,324;  254,527;    0,000
519,115;  237,977;  251,718;    0,000
519,699;  245,650;  259,501;    0,000
520,283;  248,668;  261,003;    0,000
520,867;  248,627;  260,760;    0,000
521,450;  247,954;  261,295;    0,000
522,034;  249,316;  261,988;    0,000
522,617;  248,111;  262,194;    0,000
523,201;  251,063;  265,138;    0,000
523,784;  243,804;  258,227;    0,000
524,368;  242,192;  257,385;    0,000
524,951;  244,971;  258,779;    0,000
525,535;  246,918;  259,987;    0,000
526,118;  247,596;  259,487;    0,000
526,702;  245,592;  257,499;    0,000
527,285;  250,720;  261,842;    0,000
527,868;  251,435;  262,851;    0,000
528,451;  251,107;  263,683;    0,000
529,035;  251,071;  262,356;    0,000
529,618;  248,941;  261,786;    0,000
530,201;  249,804;  262,815;    0,000
530,784;  249,990;  263,076;    0,000
531,367;  249,156;  263,668;    0,000
531,950;  250,804;  263,956;    0,000
532,533;  253,526;  266,343;    0,000
533,116;  257,985;  272,031;    0,000
533,699;  256,757;  270,042;    0,000
534,282;  253,003;  265,975;    0,000
534,865;  254,248;  265,056;    0,000
535,448;  249,582;  259,457;    0,000
536,030;  249,797;  260,227;    0,000
536,613;  249,585;  258,261;    0,000
537,196;  242,469;  250,764;    0,000
537,778;  244,417;  253,173;    0,000
538,361;  248,378;  255,563;    0,000
538,944;  251,668;  257,692;    0,000
539,526;  258,925;  264,423;    0,000
540,109;  262,787;  267,570;    0,000
540,691;  263,553;  267,620;    0,000
541,274;  269,053;  271,078;    0,000
541,856;  272,916;  271,170;    0,000
542,439;  277,177;  275,525;    0,000
543,021;  273,269;  273,547;    0,000
543,603;  273,301;  272,220;    0,000
544,186;  271,979;  268,326;    0,000
544,768;  273,829;  270,325;    0,000
545,350;  272,036;  269,367;    0,000
545,932;  269,893;  268,234;    0,000
546,515;  266,644;  265,942;    0,000
547,097;  269,159;  265,698;    0,000
547,679;  269,759;  267,069;    0,000
548,261;  273,950;  271,534;    0,000
548,843;  273,072;  269,930;    0,000
549,425;  274,334;  269,030;    0,000
550,007;  277,104;  271,009;    0,000
550,589;  278,004;  270,362;    0,000
551,171;  276,578;  270,839;    0,000
551,752;  271,576;  265,105;    0,000
552,334;  265,417;  260,576;    0,000
552,916;  265,794;  261,238;    0,000
553,498;  265,149;  260,454;    0,000
554,079;  260,258;  256,369;    0,000
554,661;  259,369;  255,012;    0,000
555,243;  261,202;  255,472;    0,000
555,824;  260,941;  255,996;    0,000
556,406;  260,084;  254,216;    0,000
556,987;  258,348;  251,841;    0,000
557,569;  257,127;  251,488;    0,000
558,150;  264,026;  256,323;    0,000
558,732;  269,276;  259,544;    0,000
559,313;  270,227;  259,289;    0,000
559,894;  271,576;  257,912;    0,000
560,476;  274,728;  258,311;    0,000
561,057;  275,790;  258,022;    0,000
561,638;  279,769;  261,086;    0,000
562,219;  273,376;  254,565;    0,000
562,801;  270,647;  252,044;    0,000
563,382;  270,301;  252,728;    0,000
563,963;  272,904;  255,558;    0,000
564,544;  270,880;  254,343;    0,000
565,125;  269,521;  251,563;    0,000
565,706;  269,653;  252,219;    0,000
566,287;  271,242;  253,565;    0,000
566,868;  267,752;  250,874;    0,000
567,449;  270,118;  251,190;    0,000
568,030;  269,050;  248,971;    0,000
568,610;  273,249;  251,542;    0,000
569,191;  275,802;  254,743;    0,000
569,772;  275,892;  252,371;    0,000
570,353;  275,876;  250,584;    0,000
570,933;  280,647;  251,704;    0,000
571,514;  277,317;  248,239;    0,000
572,094;  277,300;  247,208;    0,000
572,675;  275,112;  244,184;    0,000
573,256;  280,164;  246,226;    0,000
573,836;  278,175;  243,062;    0,000
574,417;  279,796;  245,329;    0,000
574,997;  286,108;  250,444;    0,000
575,577;  289,445;  252,240;    0,000
576,158;  295,416;  255,950;    0,000
576,738;  300,600;  261,059;    0,000
577,318;  302,538;  260,621;    0,000
577,898;  306,257;  264,233;    0,000
578,479;  309,219;  264,338;    0,000
579,059;  302,953;  259,650;    0,000
579,639;  306,602;  260,547;    0,000
580,219;  305,253;  258,823;    0,000
580,799;  302,706;  254,051;    0,000
581,379;  296,137;  249,415;    0,000
581,959;  297,302;  247,527;    0,000
582,539;  299,848;  249,237;    0,000
583,119;  301,223;  247,717;    0,000
583,699;  299,973;  247,045;    0,000
584,279;  301,193;  245,597;    0,000
584,859;  307,602;  250,336;    0,000
585,438;  311,083;  251,422;    0,000
586,018;  312,364;  251,537;    0,000
586,598;  312,698;  250,061;    0,000
587,177;  315,177;  250,660;    0,000
587,757;  318,152;  251,752;    0,000
588,337;  319,667;  253,612;    0,000
588,916;  319,447;  252,747;    0,000
589,496;  318,225;  251,183;    0,000
590,075;  322,112;  254,184;    0,000
590,654;  323,185;  253,285;    0,000
591,234;  324,685;  253,104;    0,000
591,813;  325,907;  253,109;    0,000
592,393;  326,445;  250,467;    0,000
592,972;  326,749;  248,901;    0,000
593,551;  333,362;  253,295;    0,000
594,130;  333,257;  252,929;    0,000
594,710;  337,644;  256,140;    0,000
595,289;  339,373;  256,350;    0,000
595,868;  340,900;  254,909;    0,000
596,447;  345,239;  257,732;    0,000
597,026;  348,820;  259,218;    0,000
597,605;  349,435;  259,170;    0,000
598,184;  345,496;  253,643;    0,000
598,763;  347,010;  253,969;    0,000
599,342;  348,103;  254,811;    0,000
599,920;  347,027;  254,227;    0,000
600,499;  350,012;  257,179;    0,000
601,078;  347,923;  254,611;    0,000
601,657;  349,808;  254,015;    0,000
602,236;  355,022;  258,225;    0,000
602,814;  352,584;  255,697;    0,000
603,393;  351,923;  254,089;    0,000
603,971;  358,233;  257,703;    0,000
604,550;  356,768;  255,885;    0,000
605,128;  356,312;  255,768;    0,000
605,707;  360,019;  258,010;    0,000
606,285;  360,938;  256,517;    0,000
606,864;  365,199;  259,545;    0,000
607,442;  369,720;  261,543;    0,000
608,020;  371,840;  262,527;    0,000
608,599;  373,333;  261,153;    0,000
609,177;  382,731;  267,088;    0,000
609,755;  380,443;  262,899;    0,000
610,333;  382,440;  260,668;    0,000
610,912;  385,762;  261,503;    0,000
611,490;  388,019;  261,456;    0,000
612,068;  384,968;  257,011;    0,000
612,646;  387,037;  259,401;    0,000
613,224;  387,936;  258,192;    0,000
613,802;  390,149;  259,362;    0,000
614,380;  390,892;  262,417;    0,000
614,958;  390,856;  261,604;    0,000
615,535;  389,575;  259,556;    0,000
616,113;  393,913;  263,270;    0,000
616,691;  392,646;  260,499;    0,000
617,269;  390,055;  257,929;    0,000
617,846;  391,978;  258,597;    0,000
618,424;  391,302;  257,153;    0,000
619,002;  393,435;  257,412;    0,000
619,579;  394,312;  258,127;    0,000
620,157;  396,089;  259,895;    0,000
620,734;  397,931;  263,295;    0,000
621,312;  399,563;  263,716;    0,000
621,889;  400,022;  264,051;    0,000
622,467;  402,903;  264,926;    0,000
623,044;  402,943;  265,122;    0,000
623,621;  405,355;  266,501;    0,000
624,198;  403,097;  262,823;    0,000
624,776;  403,196;  259,284;    0,000
625,353;  404,502;  258,854;    0,000
625,930;  405,845;  258,825;    0,000
626,507;  409,572;  260,944;    0,000
627,084;  410,217;  259,324;    0,000
627,661;  408,378;  257,543;    0,000
628,238;  410,842;  258,200;    0,000
628,815;  412,671;  258,318;    0,000
629,392;  411,527;  257,186;    0,000
629,969;  415,892;  258,527;    0,000
630,546;  417,392;  257,854;    0,000
631,123;  421,278;  259,866;    0,000
631,700;  426,118;  262,100;    0,000
632,276;  428,180;  261,257;    0,000
632,853;  433,524;  265,053;    0,000
633,430;  436,941;  268,348;    0,000
634,006;  437,121;  268,139;    0,000
634,583;  441,443;  271,242;    0,000
635,160;  440,762;  271,058;    0,000
635,736;  442,568;  270,849;    0,000
636,313;  443,248;  269,367;    0,000
636,889;  441,220;  264,866;    0,000
637,466;  445,365;  266,076;    0,000
638,042;  444,766;  265,493;    0,000
638,618;  442,452;  260,950;    0,000
639,194;  441,532;  257,652;    0,000
639,771;  439,355;  254,357;    0,000
640,347;  444,238;  258,360;    0,000
640,923;  445,534;  258,692;    0,000
641,499;  445,258;  256,268;    0,000
642,075;  446,754;  255,886;    0,000
642,651;  450,178;  257,593;    0,000
643,227;  455,703;  260,449;    0,000
643,803;  462,784;  265,937;    0,000
644,379;  464,066;  264,418;    0,000
644,955;  466,390;  264,528;    0,000
645,531;  469,929;  266,136;    0,000
646,107;  472,010;  266,310;    0,000
646,683;  469,663;  261,630;    0,000
647,259;  469,688;  260,637;    0,000
647,834;  470,983;  258,141;    0,000
648,410;  468,008;  253,875;    0,000
648,986;  470,461;  253,129;    0,000
649,561;  472,471;  254,212;    0,000
650,137;  472,752;  252,304;    0,000
650,712;  472,248;  252,114;    0,000
651,288;  472,572;  253,099;    0,000
651,863;  474,511;  253,534;    0,000
652,439;  477,036;  253,932;    0,000
653,014;  479,303;  255,795;    0,000
653,589;  477,941;  250,301;    0,000
654,165;  480,137;  250,942;    0,000
654,740;  485,190;  252,702;    0,000
655,315;  486,643;  249,966;    0,000
655,890;  490,968;  252,999;    0,000
656,465;  491,021;  253,017;    0,000
657,040;  488,259;  248,400;    0,000
657,616;  488,298;  246,150;    0,000
658,191;  493,194;  247,818;    0,000
658,766;  498,604;  249,874;    0,000
659,340;  500,971;  248,099;    0,000
659,915;  501,267;  246,527;    0,000
660,490;  505,834;  245,980;    0,000
661,065;  511,016;  247,975;    0,000
661,640;  512,883;  247,348;    0,000
662,215;  513,836;  245,919;    0,000
662,789;  517,132;  246,881;    0,000
663,364;  521,784;  248,277;    0,000
663,939;  521,309;  243,695;    0,000
664,513;  526,462;  246,045;    0,000
665,088;  528,072;  245,948;    0,000
665,662;  532,196;  249,638;    0,000
666,237;  537,135;  251,479;    0,000
666,811;  531,216;  246,859;    0,000
667,385;  534,469;  248,055;    0,000
667,960;  537,408;  247,302;    0,000
668,534;  534,461;  245,849;    0,000
669,108;  537,728;  245,342;    0,000
669,683;  538,210;  242,561;    0,000
670,257;  538,277;  238,549;    0,000
670,831;  545,187;  237,278;    0,000
671,405;  547,683;  236,535;    0,000
671,979;  547,965;  235,432;    0,000
672,553;  556,060;  234,939;    0,000
673,127;  561,085;  236,778;    0,000
673,701;  562,823;  234,465;    0,000
674,275;  566,119;  234,272;    0,000
674,849;  571,315;  236,680;    0,000
675,423;  571,325;  235,712;    0,000
675,997;  578,664;  237,219;    0,000
676,570;  579,331;  236,931;    0,000
677,144;  582,227;  234,048;    0,000
677,718;  592,480;  239,117;    0,000
678,292;  599,090;  241,727;    0,000
678,865;  601,971;  241,063;    0,000
679,439;  609,682;  242,267;    0,000
680,012;  612,877;  241,816;    0,000
680,586;  620,002;  241,838;    0,000
681,159;  621,898;  242,501;    0,000
681,733;  624,836;  242,400;    0,000
682,306;  626,475;  239,225;    0,000
682,879;  631,099;  240,657;    0,000
683,453;  634,466;  240,089;    0,000
684,026;  641,091;  242,606;    0,000
684,599;  643,630;  242,043;    0,000
685,172;  652,254;  244,760;    0,000
685,745;  654,850;  244,524;    0,000
686,318;  656,174;  245,944;    0,000
686,891;  658,327;  244,057;    0,000
687,464;  662,766;  245,022;    0,000
688,037;  665,447;  244,939;    0,000
688,610;  667,843;  243,183;    0,000
689,183;  670,553;  242,404;    0,000
689,756;  676,420;  242,387;    0,000
690,329;  681,202;  240,662;    0,000
690,902;  688,926;  243,891;    0,000
691,474;  692,893;  241,976;    0,000
692,047;  695,389;  238,492;    0,000
692,620;  704,442;  243,035;    0,000
693,192;  708,724;  242,863;    0,000
693,765;  711,034;  242,311;    0,000
694,337;  716,844;  241,948;    0,000
694,910;  721,254;  242,407;    0,000
695,482;  727,050;  244,929;    0,000
696,055;  735,317;  246,681;    0,000
696,627;  741,884;  247,162;    0,000
697,199;  742,837;  241,539;    0,000
697,772;  747,133;  239,887;    0,000
698,344;  749,915;  240,238;    0,000
698,916;  753,110;  235,678;    0,000
699,488;  759,335;  233,481;    0,000
700,060;  763,531;  232,502;    0,000
700,633;  765,984;  229,934;    0,000
701,205;  772,894;  233,210;    0,000
701,777;  782,404;  236,673;    0,000
702,349;  788,200;  237,645;    0,000
702,920;  793,767;  239,883;    0,000
703,492;  793,277;  238,511;    0,000
704,064;  793,187;  237,125;    0,000
704,636;  796,540;  237,060;    0,000
705,208;  800,507;  234,116;    0,000
705,779;  801,517;  230,690;    0,000
706,351;  808,542;  230,592;    0,000
706,923;  809,852;  226,774;    0,000
707,494;  815,676;  228,590;    0,000
708,066;  824,258;  228,357;    0,000
708,638;  830,239;  226,571;    0,000
709,209;  842,349;  229,691;    0,000
709,780;  850,059;  228,023;    0,000
710,352;  857,327;  225,869;    0,000
710,923;  870,008;  230,893;    0,000
711,494;  876,518;  227,040;    0,000
712,066;  885,257;  230,141;    0,000
712,637;  890,024;  228,793;    0,000
713,208;  897,520;  229,881;    0,000
713,779;  905,216;  232,612;    0,000
714,350;  911,540;  234,140;    0,000
714,922;  917,407;  232,259;    0,000
715,492;  926,160;  234,523;    0,000
716,064;  930,828;  232,506;    0,000
716,634;  936,981;  232,442;    0,000
717,205;  943,034;  235,004;    0,000
717,776;  949,244;  234,572;    0,000
718,347;  956,782;  236,812;    0,000
718,918;  963,492;  237,204;    0,000
719,489;  970,474;  238,098;    0,000
720,059;  976,413;  238,865;    0,000
720,630;  984,580;  240,833;    0,000
721,201;  988,147;  238,909;    0,000
721,771;  996,757;  240,538;    0,000
722,342; 1005,067;  241,133;    0,000
722,912; 1010,135;  239,642;    0,000
723,483; 1016,802;  239,604;    0,000
724,053; 1028,612;  241,219;    0,000
724,623; 1033,151;  239,823;    0,000
725,194; 1039,646;  239,468;    0,000
725,764; 1049,414;  239,967;    0,000
726,334; 1054,895;  238,789;    0,000
726,904; 1055,577;  235,993;    0,000
727,475; 1067,472;  239,583;    0,000
728,045; 1071,883;  237,339;    0,000
728,615; 1086,807;  237,634;    0,000
729,185; 1096,960;  238,833;    0,000
729,755; 1097,156;  234,822;    0,000
730,325; 1101,594;  231,614;    0,000
730,895; 1118,190;  234,866;    0,000
731,465; 1120,172;  230,298;    0,000
732,034; 1127,525;  231,329;    0,000
732,604; 1133,906;  235,100;    0,000
733,174; 1138,431;  232,612;    0,000
733,744; 1149,055;  234,120;    0,000
734,313; 1164,022;  239,443;    0,000
734,883; 1168,518;  236,824;    0,000
735,453; 1183,371;  239,424;    0,000
736,022; 1191,352;  237,785;    0,000
736,592; 1202,148;  237,104;    0,000
737,161; 1214,573;  240,513;    0,000
737,731; 1223,211;  242,932;    0,000
738,300; 1227,293;  240,007;    0,000
738,869; 1236,360;  241,203;    0,000
739,439; 1237,584;  237,089;    0,000
740,008; 1247,809;  239,286;    0,000
740,577; 1248,405;  237,025;    0,000
741,146; 1252,858;  235,741;    0,000
741,715; 1259,468;  232,914;    0,000
742,284; 1270,206;  234,189;    0,000
742,853; 1280,474;  235,525;    0,000
743,422; 1292,669;  238,814;    0,000
743,991; 1295,894;  235,422;    0,000
744,560; 1309,104;  236,225;    0,000
745,129; 1318,585;  234,873;    0,000
745,698; 1328,424;  235,886;    0,000
746,267; 1338,306;  235,688;    0,000
746,836; 1347,587;  233,993;    0,000
747,404; 1359,483;  236,829;    0,000
747,973; 1371,522;  240,615;    0,000
748,542; 1378,860;  240,500;    0,000
749,110; 1389,456;  242,198;    0,000
749,679; 1399,181;  242,237;    0,000
750,247; 1399,991;  238,475;    0,000
750,816; 1409,344;  240,612;    0,000
751,384; 1409,368;  235,798;    0,000
751,952; 1416,735;  234,616;    0,000
752,521; 1423,031;  233,754;    0,000
753,089; 1426,741;  231,118;    0,000
753,657; 1431,980;  231,199;    0,000
754,225; 1441,461;  234,364;    0,000
754,794; 1444,957;  233,773;    0,000
755,362; 1453,496;  235,392;    0,000
755,930; 1463,692;  238,381;    0,000
756,498; 1468,359;  237,676;    0,000
757,066; 1475,997;  238,056;    0,000
757,634; 1484,322;  239,277;    0,000
758,202; 1492,860;  239,633;    0,000
758,769; 1499,685;  242,254;    0,000
759,337; 1506,124;  242,770;    0,000
759,905; 1502,276;  237,417;    0,000
760,473; 1508,987;  238,949;    0,000
761,041; 1511,711;  236,451;    0,000
761,608; 1512,278;  233,946;    0,000
762,176; 1519,688;  234,538;    0,000
762,743; 1524,941;  231,104;    0,000
763,311; 1526,766;  227,092;    0,000
763,878; 1534,276;  228,504;    0,000
764,446; 1539,557;  225,817;    0,000
765,013; 1548,053;  228,188;    0,000
765,581; 1556,749;  229,577;    0,000
766,148; 1559,602;  228,399;    0,000
766,715; 1563,426;  228,065;    0,000
767,282; 1574,851;  232,754;    0,000
767,849; 1582,161;  231,726;    0,000
768,417; 1587,342;  233,958;    0,000
768,984; 1588,467;  230,974;    0,000
769,551; 1593,062;  230,177;    0,000
770,118; 1594,001;  227,122;    0,000
770,685; 1592,568;  225,045;    0,000
771,252; 1587,593;  220,230;    0,000
771,819; 1593,774;  221,265;    0,000
772,385; 1595,570;  218,347;    0,000
772,952; 1599,666;  217,637;    0,000
773,519; 1600,847;  216,848;    0,000
774,086; 1608,272;  217,023;    0,000
774,652; 1616,896;  217,362;    0,000
775,219; 1626,692;  218,477;    0,000
775,786; 1632,302;  220,400;    0,000
776,352; 1635,469;  221,159;    0,000
776,919; 1646,451;  230,688;    0,000
777,485; 1653,161;  232,504;    0,000
778,051; 1658,785;  235,978;    0,000
778,618; 1662,538;  236,768;    0,000
779,184; 1659,563;  233,546;    0,000
779,750; 1659,816;  232,536;    0,000
780,317; 1666,054;  234,851;    0,000
780,883; 1666,450;  229,439;    0,000
781,449; 1665,760;  228,476;    0,000
782,015; 1666,285;  229,833;    0,000
782,581; 1670,137;  232,019;    0,000
783,147; 1682,848;  236,782;    0,000
783,713; 1691,143;  238,406;    0,000
784,279; 1693,882;  241,429;    0,000
784,845; 1692,006;  240,041;    0,000
785,411; 1697,774;  243,343;    0,000
785,977; 1697,012;  238,812;    0,000
786,542; 1698,422;  240,275;    0,000
787,108; 1697,961;  240,417;    0,000
787,674; 1698,243;  239,449;    0,000
788,239; 1702,438;  237,405;    0,000
788,805; 1708,334;  238,727;    0,000
789,371; 1712,530;  237,589;    0,000
789,936; 1716,383;  238,830;    0,000
790,501; 1723,622;  238,814;    0,000
791,067; 1726,289;  237,998;    0,000
791,632; 1726,528;  234,741;    0,000
792,198; 1728,395;  235,129;    0,000
792,763; 1728,319;  233,158;    0,000
793,328; 1731,272;  231,396;    0,000
793,893; 1730,911;  228,522;    0,000
794,458; 1728,921;  225,048;    0,000
795,024; 1728,474;  225,206;    0,000
795,589; 1730,227;  225,859;    0,000
796,154; 1731,008;  223,248;    0,000
796,719; 1736,076;  223,590;    0,000
797,284; 1739,271;  223,660;    0,000
797,848; 1742,239;  224,112;    0,000
798,413; 1747,749;  226,977;    0,000
798,978; 1753,987;  229,005;    0,000
799,543; 1751,998;  228,090;    0,000
800,108; 1755,736;  230,094;    0,000
800,672; 1756,703;  231,323;    0,000
801,237; 1756,299;  231,008;    0,000
801,801; 1761,595;  235,200;    0,000
802,366; 1762,120;  234,892;    0,000
802,930; 1761,729;  232,145;    0,000
803,495; 1770,097;  238,275;    0,000
804,059; 1770,121;  238,431;    0,000
804,624; 1767,474;  237,756;    0,000
805,188; 1764,913;  238,060;    0,000
805,752; 1762,209;  236,802;    0,000
806,317; 1757,619;  234,891;    0,000
806,881; 1756,886;  236,899;    0,000
807,445; 1749,153;  230,858;    0,000
808,009; 1752,678;  231,987;    0,000
808,573; 1756,888;  233,258;    0,000
809,137; 1760,698;  233,104;    0,000
809,701; 1767,836;  233,049;    0,000
810,265; 1771,689;  231,842;    0,000
810,829; 1772,628;  227,584;    0,000
811,393; 1776,481;  228,269;    0,000
811,956; 1774,220;  224,552;    0,000
812,520; 1777,630;  221,271;    0,000
813,084; 1774,368;  217,529;    0,000
813,647; 1769,621;  215,274;    0,000
814,211; 1768,503;  216,708;    0,000
814,775; 1769,127;  217,350;    0,000
815,338; 1772,380;  219,455;    0,000
815,902; 1770,576;  219,377;    0,000
816,465; 1768,486;  221,132;    0,000
817,029; 1775,096;  224,254;    0,000
817,592; 1774,692;  222,554;    0,000
818,155; 1782,059;  226,002;    0,000
818,718; 1782,498;  227,508;    0,000
819,282; 1778,308;  225,424;    0,000
819,845; 1783,518;  228,889;    0,000
820,408; 1785,185;  229,960;    0,000
820,971; 1779,453;  231,107;    0,000
821,534; 1782,148;  236,602;    0,000
822,097; 1776,859;  233,057;    0,000
822,660; 1777,454;  234,239;    0,000
823,223; 1774,993;  233,434;    0,000
823,786; 1768,403;  230,461;    0,000
824,349; 1764,470;  228,685;    0,000
824,911; 1758,066;  223,821;    0,000
825,474; 1753,591;  222,253;    0,000
826,037; 1755,772;  224,450;    0,000
826,599; 1757,225;  226,851;    0,000
827,162; 1762,978;  227,611;    0,000
827,724; 1764,817;  226,382;    0,000
828,287; 1766,827;  228,899;    0,000
828,849; 1772,923;  231,111;    0,000
829,412; 1778,433;  231,830;    0,000
829,974; 1775,786;  231,897;    0,000
830,536; 1769,481;  227,686;    0,000
831,099; 1761,491;  226,495;    0,000
831,661; 1764,516;  229,581;    0,000
832,223; 1764,369;  228,140;    0,000
832,785; 1764,208;  226,943;    0,000
833,347; 1760,332;  223,548;    0,000
833,909; 1759,828;  221,826;    0,000
834,471; 1768,166;  225,598;    0,000
835,033; 1775,734;  226,557;    0,000
835,595; 1774,701;  227,485;    0,000
836,157; 1775,468;  229,588;    0,000
836,719; 1772,978;  230,188;    0,000
837,281; 1772,903;  230,429;    0,000
837,842; 1777,798;  233,375;    0,000
838,404; 1776,923;  230,963;    0,000
838,966; 1776,304;  229,123;    0,000
839,527; 1771,743;  223,262;    0,000
840,089; 1768,496;  217,217;    0,000
840,650; 1772,149;  217,485;    0,000
841,212; 1774,616;  217,210;    0,000
841,773; 1766,098;  212,860;    0,000
842,335; 1759,479;  209,262;    0,000
842,896; 1757,461;  209,367;    0,000
843,457; 1759,114;  212,416;    0,000
844,018; 1763,938;  218,072;    0,000
844,580; 1765,820;  218,978;    0,000
845,141; 1764,201;  217,723;    0,000
845,702; 1764,025;  218,589;    0,000
846,263; 1765,650;  221,644;    0,000
846,824; 1760,131;  220,837;    0,000
847,385; 1759,042;  220,625;    0,000
847,946; 1752,723;  215,786;    0,000
848,507; 1752,447;  218,610;    0,000
849,068; 1743,086;  216,085;    0,000
849,628; 1739,425;  211,449;    0,000
850,189; 1731,906;  205,528;    0,000
850,750; 1734,016;  206,811;    0,000
851,310; 1730,484;  204,676;    0,000
851,871; 1732,865;  205,028;    0,000
852,432; 1726,418;  198,534;    0,000
852,992; 1734,271;  203,449;    0,000
853,552; 1738,110;  204,902;    0,000
854,113; 1743,563;  209,414;    0,000
854,673; 1741,358;  208,582;    0,000
855,234; 1741,511;  208,415;    0,000
855,794; 1740,636;  213,995;    0,000
856,354; 1741,489;  213,423;    0,000
856,914; 1740,113;  211,564;    0,000
857,474; 1738,052;  212,196;    0,000
858,034; 1741,833;  212,799;    0,000
858,595; 1747,358;  215,144;    0,000
859,155; 1751,582;  214,486;    0,000
859,714; 1754,164;  209,880;    0,000
860,274; 1759,402;  212,705;    0,000
860,834; 1760,455;  212,379;    0,000
861,394; 1769,165;  212,302;    0,000
861,954; 1770,461;  211,598;    0,000
862,514; 1776,000;  210,691;    0,000
863,073; 1782,167;  213,722;    0,000
863,633; 1782,134;  212,891;    0,000
864,192; 1780,930;  210,689;    0,000
864,752; 1784,040;  209,199;    0,000
865,311; 1782,464;  208,288;    0,000
865,871; 1781,675;  205,683;    0,000
866,430; 1782,128;  204,574;    0,000
866,990; 1780,795;  201,914;    0,000
867,549; 1784,376;  201,525;    0,000
868,108; 1790,201;  203,232;    0,000
868,667; 1788,439;  204,611;    0,000
869,227; 1794,064;  207,483;    0,000
869,786; 1797,602;  209,208;    0,000
870,345; 1796,827;  207,517;    0,000
870,904; 1791,880;  203,678;    0,000
871,463; 1791,918;  202,104;    0,000
872,022; 1797,643;  202,946;    0,000
872,581; 1800,910;  200,013;    0,000
873,140; 1795,006;  194,955;    0,000
873,698; 1793,773;  193,143;    0,000
874,257; 1801,297;  193,468;    0,000
874,816; 1808,755;  194,948;    0,000
875,374; 1814,098;  195,803;    0,000
875,933; 1812,998;  192,751;    0,000
876,492; 1823,083;  195,932;    0,000
877,050; 1827,340;  194,929;    0,000
877,609; 1833,340;  195,626;    0,000
878,167; 1825,812;  192,221;    0,000
878,725; 1827,926;  194,023;    0,000
879,284; 1831,226;  196,801;    0,000
879,842; 1825,655;  194,839;    0,000
880,400; 1821,598;  196,182;    0,000
880,958; 1820,826;  196,298;    0,000
881,517; 1820,783;  197,416;    0,000
882,075; 1827,926;  201,511;    0,000
882,633; 1828,740;  200,106;    0,000
883,191; 1829,083;  199,201;    0,000
883,749; 1835,469;  200,656;    0,000
884,307; 1842,598;  202,009;    0,000
884,865; 1847,269;  204,322;    0,000
885,422; 1851,412;  202,072;    0,000
885,980; 1854,998;  203,992;    0,000
886,538; 1862,312;  205,883;    0,000
887,095; 1866,369;  205,609;    0,000
887,653; 1871,269;  204,133;    0,000
888,211; 1878,312;  205,678;    0,000
888,768; 1885,598;  207,231;    0,000
889,326; 1887,626;  209,058;    0,000
889,883; 1892,640;  207,308;    0,000
890,441; 1898,426;  206,746;    0,000
890,998; 1904,969;  209,438;    0,000
891,555; 1908,469;  215,592;    0,000
892,112; 1902,655;  210,616;    0,000
892,670; 1907,912;  213,531;    0,000
893,227; 1905,383;  211,803;    0,000
893,784; 1904,683;  211,318;    0,000
894,341; 1904,169;  214,995;    0,000
894,898; 1895,640;  211,581;    0,000
895,455; 1894,797;  210,065;    0,000
896,012; 1892,183;  210,223;    0,000
896,569; 1887,783;  207,255;    0,000
897,126; 1895,569;  210,205;    0,000
897,682; 1892,040;  210,839;    0,000
898,239; 1887,555;  208,949;    0,000
898,796; 1890,455;  210,133;    0,000
899,352; 1889,026;  209,989;    0,000
899,909; 1888,797;  211,693;    0,000
900,466; 1884,955;  213,306;    0,000
901,022; 1880,469;  214,936;    0,000
901,579; 1877,540;  214,448;    0,000
902,135; 1871,140;  212,922;    0,000
902,691; 1864,612;  214,362;    0,000
903,248; 1857,326;  213,655;    0,000
903,804; 1854,869;  212,333;    0,000
904,360; 1848,212;  211,808;    0,000
904,916; 1840,498;  209,473;    0,000
905,472; 1834,555;  210,672;    0,000
906,028; 1830,440;  210,831;    0,000
906,584; 1822,926;  208,488;    0,000
907,140; 1818,498;  208,052;    0,000
907,696; 1813,869;  207,505;    0,000
908,252; 1812,198;  206,938;    0,000
908,808; 1809,526;  205,415;    0,000
909,364; 1809,098;  206,212;    0,000
909,920; 1806,183;  207,193;    0,000
910,475; 1803,326;  206,481;    0,000
911,031; 1802,155;  206,818;    0,000
911,587; 1797,769;  204,205;    0,000
912,142; 1795,083;  202,702;    0,000
912,698; 1796,540;  203,679;    0,000
913,253; 1794,198;  199,116;    0,000
913,808; 1793,355;  198,301;    0,000
914,364; 1794,169;  196,593;    0,000
914,919; 1795,526;  199,152;    0,000
915,474; 1799,426;  203,879;    0,000
916,030; 1798,312;  202,706;    0,000
916,585; 1798,183;  202,881;    0,000
917,140; 1797,440;  203,733;    0,000
917,695; 1792,183;  200,922;    0,000
918,250; 1790,383;  202,375;    0,000
918,805; 1786,583;  197,023;    0,000
919,360; 1783,355;  194,792;    0,000
919,915; 1781,555;  197,021;    0,000
920,469; 1778,226;  198,139;    0,000
921,024; 1773,640;  198,038;    0,000
921,579; 1777,297;  200,676;    0,000
922,134; 1778,283;  200,002;    0,000
922,688; 1777,869;  202,786;    0,000
923,243; 1780,783;  205,515;    0,000
923,797; 1780,655;  204,035;    0,000
924,352; 1780,883;  204,322;    0,000
924,906; 1781,083;  205,568;    0,000
925,461; 1777,926;  205,309;    0,000
926,015; 1771,483;  202,242;    0,000
926,569; 1767,526;  200,212;    0,000
927,124; 1763,712;  200,593;    0,000
927,678; 1765,312;  202,859;    0,000
928,232; 1760,698;  202,076;    0,000
928,786; 1762,240;  201,123;    0,000
929,340; 1767,483;  203,869;    0,000
929,894; 1767,855;  205,491;    0,000
930,448; 1768,555;  207,492;    0,000
931,002; 1766,183;  207,396;    0,000
931,556; 1763,297;  205,768;    0,000
932,110; 1760,269;  201,841;    0,000
932,663; 1757,512;  201,971;    0,000
933,217; 1752,012;  200,338;    0,000
933,771; 1756,926;  202,885;    0,000
934,324; 1757,555;  202,963;    0,000
934,878; 1748,498;  198,058;    0,000
935,432; 1744,469;  199,585;    0,000
935,985; 1739,640;  202,416;    0,000
936,538; 1736,426;  204,139;    0,000
937,092; 1729,598;  202,976;    0,000
937,645; 1716,426;  200,878;    0,000
938,198; 1710,383;  202,681;    0,000
938,752; 1717,140;  208,393;    0,000
939,305; 1718,655;  208,148;    0,000
939,858; 1720,326;  208,961;    0,000
940,411; 1718,355;  210,145;    0,000
940,964; 1716,969;  210,751;    0,000
941,517; 1719,583;  213,065;    0,000
942,070; 1722,055;  212,641;    0,000
942,623; 1712,412;  209,458;    0,000
943,176; 1704,998;  209,573;    0,000
943,728; 1697,912;  208,258;    0,000
944,281; 1690,526;  204,818;    0,000
944,834; 1686,340;  205,989;    0,000
945,387; 1679,440;  203,591;    0,000
945,939; 1671,640;  201,319;    0,000
946,492; 1667,226;  201,376;    0,000
947,044; 1662,412;  200,701;    0,000
947,597; 1661,383;  200,166;    0,000
948,149; 1655,726;  200,548;    0,000
948,701; 1656,483;  199,722;    0,000
949,254; 1660,397;  202,352;    0,000
949,806; 1662,083;  203,593;    0,000
950,358; 1669,483;  205,059;    0,000
950,910; 1671,098;  204,118;    0,000
951,462; 1666,955;  202,639;    0,000
952,014; 1675,326;  204,869;    0,000
952,566; 1669,369;  202,698;    0,000
953,118; 1662,155;  201,818;    0,000
953,670; 1651,926;  199,145;    0,000
954,222; 1641,140;  196,979;    0,000
954,774; 1635,998;  196,936;    0,000
955,326; 1635,055;  197,469;    0,000
955,877; 1628,383;  196,769;    0,000
956,429; 1631,583;  200,098;    0,000
956,981; 1633,326;  200,093;    0,000
957,532; 1634,940;  201,002;    0,000
958,084; 1634,755;  201,536;    0,000
958,635; 1632,726;  204,051;    0,000
959,187; 1630,212;  206,759;    0,000
959,738; 1627,183;  207,136;    0,000
960,289; 1621,397;  207,635;    0,000
960,840; 1617,826;  205,733;    0,000
961,392; 1616,626;  209,435;    0,000
961,943; 1611,626;  205,886;    0,000
962,494; 1606,555;  204,815;    0,000
963,045; 1600,883;  202,815;    0,000
963,596; 1597,855;  202,466;    0,000
964,147; 1594,655;  199,959;    0,000
964,698; 1585,912;  200,381;    0,000
965,249; 1581,098;  198,676;    0,000
965,800; 1573,726;  198,108;    0,000
966,350; 1570,869;  199,271;    0,000
966,901; 1566,826;  197,022;    0,000
967,452; 1559,312;  194,105;    0,000
968,002; 1554,626;  194,813;    0,000
968,553; 1550,883;  195,785;    0,000
969,103; 1546,340;  194,262;    0,000
969,654; 1541,112;  197,573;    0,000
970,204; 1532,783;  193,316;    0,000
970,755; 1529,326;  198,635;    0,000
971,305; 1519,826;  196,475;    0,000
971,855; 1512,869;  197,563;    0,000
972,405; 1508,169;  198,476;    0,000
972,956; 1496,769;  198,329;    0,000
973,506; 1489,055;  195,188;    0,000
974,056; 1489,183;  199,055;    0,000
974,606; 1483,940;  196,771;    0,000
975,156; 1485,383;  202,006;    0,000
975,706; 1478,355;  200,901;    0,000
976,255; 1471,769;  198,085;    0,000
976,805; 1464,326;  194,115;    0,000
977,355; 1459,940;  193,511;    0,000
977,905; 1452,797;  190,249;    0,000
978,454; 1440,483;  186,708;    0,000
979,004; 1434,397;  186,169;    0,000
979,554; 1428,598;  181,323;    0,000
980,103; 1427,083;  183,672;    0,000
980,653; 1425,612;  187,109;    0,000
981,202; 1426,412;  189,989;    0,000
981,751; 1421,240;  190,483;    0,000
982,301; 1419,483;  192,135;    0,000
982,850; 1415,598;  192,056;    0,000
983,399; 1411,297;  195,139;    0,000
983,948; 1401,983;  192,845;    0,000
984,497; 1397,797;  192,408;    0,000
985,047; 1391,269;  192,701;    0,000
985,596; 1382,883;  190,479;    0,000
986,144; 1380,883;  191,313;    0,000
986,693; 1374,498;  190,216;    0,000
987,242; 1374,369;  189,391;    0,000
987,791; 1373,297;  187,878;    0,000
988,340; 1371,212;  187,055;    0,000
988,888; 1366,840;  185,666;    0,000
989,437; 1365,569;  187,833;    0,000
989,986; 1358,726;  187,305;    0,000
990,534; 1357,083;  189,511;    0,000
991,083; 1349,326;  188,602;    0,000
991,631; 1348,240;  194,181;    0,000
992,180; 1339,526;  192,253;    0,000
992,728; 1337,283;  194,729;    0,000
993,276; 1334,226;  194,772;    0,000
993,825; 1333,826;  197,686;    0,000
994,373; 1326,397;  195,889;    0,000
994,921; 1324,569;  198,619;    0,000
995,469; 1314,098;  194,948;    0,000
996,017; 1309,598;  197,799;    0,000
996,565; 1303,326;  195,386;    0,000
997,113; 1293,012;  194,233;    0,000
997,661; 1289,769;  195,701;    0,000
998,209; 1281,098;  193,923;    0,000
998,757; 1276,897;  194,433;    0,000
999,304; 1274,869;  198,521;    0,000
999,852; 1267,598;  198,102;    0,000
1000,400; 1257,983;  200,345;    0,000
1000,947; 1252,340;  202,122;    0,000
1001,495; 1238,198;  199,105;    0,000
1002,042; 1233,555;  201,096;    0,000
1002,590; 1220,683;  201,802;    0,000
1003,137; 1210,340;  201,246;    0,000
1003,684; 1209,698;  205,853;    0,000
1004,232; 1204,112;  205,866;    0,000
1004,779; 1198,026;  204,868;    0,000
1005,326; 1196,369;  204,949;    0,000
1005,873; 1190,569;  205,993;    0,000
1006,420; 1190,926;  208,981;    0,000
1006,967; 1181,098;  203,853;    0,000
1007,514; 1172,312;  200,048;    0,000
1008,061; 1165,126;  198,576;    0,000
1008,608; 1158,226;  200,879;    0,000
1009,155; 1153,240;  203,512;    0,000
1009,702; 1147,126;  200,036;    0,000
1010,248; 1138,355;  197,241;    0,000
1010,795; 1134,526;  199,646;    0,000
1011,342; 1130,198;  203,321;    0,000
1011,888; 1127,055;  207,002;    0,000
1012,435; 1123,783;  205,935;    0,000
1012,981; 1116,940;  205,785;    0,000
1013,528; 1113,955;  210,649;    0,000
1014,074; 1109,183;  211,203;    0,000
1014,620; 1109,326;  214,266;    0,000
1015,166; 1105,469;  213,948;    0,000
1015,713; 1096,640;  213,669;    0,000
1016,259; 1086,698;  212,485;    0,000
1016,805; 1076,926;  208,745;    0,000
1017,351; 1069,455;  208,248;    0,000
1017,897; 1060,583;  205,171;    0,000
1018,443; 1049,712;  201,905;    0,000
1018,989; 1039,169;  198,913;    0,000
1019,535; 1032,583;  195,983;    0,000
1020,080; 1029,983;  196,713;    0,000
1020,626; 1024,655;  199,155;    0,000
1021,172; 1015,340;  196,982;    0,000
1021,717; 1003,955;  196,409;    0,000
1022,263;  997,912;  199,171;    0,000
1022,809;  988,755;  199,549;    0,000
1023,354;  988,026;  204,042;    0,000
1023,900;  974,969;  200,485;    0,000
1024,445;  967,126;  197,875;    0,000
1024,990;  960,640;  198,491;    0,000
1025,536;  955,883;  199,736;    0,000
1026,081;  945,240;  196,598;    0,000
1026,626;  938,540;  195,008;    0,000
1027,171;  925,926;  190,711;    0,000
1027,716;  922,069;  195,075;    0,000
1028,261;  911,126;  194,342;    0,000
1028,806;  901,640;  195,149;    0,000
1029,351;  892,140;  194,293;    0,000
1029,896;  890,326;  198,786;    0,000
1030,441;  883,312;  198,806;    0,000
1030,985;  875,412;  198,338;    0,000
1031,530;  869,412;  196,731;    0,000
1032,075;  864,483;  196,178;    0,000
1032,619;  863,812;  200,828;    0,000
1033,164;  856,083;  198,722;    0,000
1033,708;  845,469;  196,279;    0,000
1034,253;  835,983;  195,459;    0,000
1034,797;  829,112;  196,476;    0,000
1035,341;  820,512;  196,176;    0,000
1035,886;  816,497;  198,575;    0,000
1036,430;  806,126;  193,261;    0,000
1036,974;  806,912;  199,781;    0,000
1037,518;  798,869;  198,938;    0,000
1038,062;  794,240;  199,306;    0,000
1038,606;  788,940;  199,698;    0,000
1039,150;  780,855;  197,595;    0,000
1039,694;  775,440;  198,072;    0,000
1040,238;  769,198;  197,332;    0,000
1040,782;  757,612;  192,828;    0,000
1041,326;  754,769;  194,282;    0,000
1041,869;  750,840;  197,628;    0,000
1042,413;  744,969;  198,241;    0,000
1042,957;  741,740;  202,171;    0,000
1043,500;  730,297;  200,459;    0,000
1044,044;  722,669;  201,346;    0,000
1044,587;  715,212;  201,756;    0,000
1045,130;  710,626;  202,998;    0,000
1045,674;  698,855;  200,305;    0,000
1046,217;  694,126;  202,883;    0,000
1046,760;  685,840;  201,263;    0,000
1047,304;  683,512;  201,275;    0,000
1047,847;  678,069;  202,502;    0,000
1048,390;  676,169;  204,491;    0,000
1048,933;  667,155;  203,545;    0,000
1049,476;  666,183;  206,341;    0,000
1050,019;  660,755;  205,258;    0,000
1050,562;  656,326;  206,332;    0,000
1051,104;  650,855;  208,866;    0,000
1051,647;  651,812;  212,155;    0,000
1052,190;  648,183;  215,566;    0,000
1052,732;  641,797;  213,151;    0,000
1053,275;  633,597;  209,453;    0,000
1053,818;  626,512;  207,208;    0,000
1054,360;  621,855;  207,191;    0,000
1054,902;  616,640;  209,083;    0,000
1055,445;  602,640;  203,278;    0,000
1055,987;  596,769;  202,881;    0,000
1056,530;  595,426;  204,958;    0,000
1057,072;  593,912;  206,759;    0,000
1057,614;  586,169;  203,476;    0,000
1058,156;  583,297;  206,599;    0,000
1058,698;  576,969;  203,358;    0,000
1059,240;  574,812;  206,353;    0,000
1059,782;  568,698;  203,668;    0,000
1060,324;  560,512;  203,211;    0,000
1060,866;  554,226;  205,362;    0,000
1061,408;  552,840;  209,819;    0,000
1061,949;  549,398;  209,153;    0,000
1062,491;  545,440;  209,405;    0,000
1063,033;  542,883;  209,529;    0,000
1063,574;  537,497;  208,592;    0,000
1064,116;  532,412;  206,232;    0,000
1064,657;  526,755;  205,076;    0,000
1065,199;  525,198;  207,033;    0,000
1065,740;  520,112;  206,936;    0,000
1066,281;  518,583;  209,778;    0,000
1066,823;  509,426;  205,196;    0,000
1067,364;  507,226;  208,968;    0,000
1067,905;  508,440;  213,685;    0,000
1068,446;  506,226;  212,301;    0,000
1068,987;  499,083;  210,768;    0,000
1069,528;  493,155;  209,179;    0,000
1070,069;  492,140;  211,116;    0,000
1070,610;  492,355;  212,905;    0,000
1071,151;  487,169;  208,663;    0,000
1071,692;  481,926;  206,752;    0,000
1072,232;  477,926;  205,788;    0,000
1072,773;  473,397;  204,421;    0,000
1073,314;  470,383;  203,598;    0,000
1073,854;  462,669;  200,458;    0,000
1074,395;  459,655;  200,966;    0,000
1074,935;  455,797;  202,371;    0,000
1075,476;  450,598;  200,971;    0,000
1076,016;  446,497;  202,911;    0,000
1076,556;  446,198;  203,479;    0,000
1077,097;  445,512;  205,328;    0,000
1077,637;  444,769;  205,439;    0,000
1078,177;  439,726;  203,913;    0,000
1078,717;  436,755;  204,766;    0,000
1079,257;  437,497;  206,941;    0,000
1079,797;  438,297;  210,331;    0,000
1080,337;  437,897;  210,848;    0,000
1080,877;  432,040;  208,226;    0,000
1081,417;  428,526;  207,406;    0,000
1081,956;  424,440;  207,436;    0,000
1082,496;  422,083;  205,606;    0,000
1083,036;  417,426;  204,488;    0,000
1083,575;  413,797;  200,176;    0,000
1084,115;  407,783;  197,792;    0,000
1084,655;  409,669;  199,815;    0,000
1085,194;  408,640;  201,346;    0,000
1085,733;  410,869;  203,708;    0,000
1086,273;  411,983;  205,421;    0,000
1086,812;  412,997;  209,239;    0,000
1087,351;  413,455;  211,091;    0,000
1087,890;  410,140;  210,099;    0,000
1088,429;  407,640;  210,881;    0,000
1088,969;  403,069;  208,909;    0,000
1089,507;  401,255;  209,501;    0,000
1090,047;  397,140;  209,315;    0,000
1090,585;  390,483;  203,596;    0,000
1091,124;  385,255;  203,602;    0,000
1091,663;  384,897;  206,195;    0,000
1092,202;  382,612;  207,848;    0,000
1092,740;  382,383;  208,743;    0,000
1093,279;  376,555;  206,413;    0,000
1093,818;  373,412;  205,158;    0,000
1094,356;  373,340;  208,232;    0,000
1094,895;  369,397;  206,805;    0,000
1095,433;  366,397;  204,838;    0,000
1095,971;  364,540;  203,221;    0,000
1096,510;  359,283;  201,822;    0,000
1097,048;  355,797;  200,842;    0,000
1097,586;  355,012;  201,033;    0,000
1098,124;  352,269;  200,926;    0,000
1098,662;  354,455;  203,608;    0,000
1099,200;  351,969;  204,806;    0,000
1099,738;  349,740;  204,136;    0,000
1100,276;  352,369;  208,125;    0,000

