0,90A
Integration time [ms]:   0,250
Averaging Nr. [scans]: 10
Smoothing Nr. [pixels]: 3
Data measured with spectrometer [name]: 7516255SP
Wave   ;Sample   ;Dark     ;Reference
[nm]   ;[counts] ;[counts] ;[counts] 

177,229;  252,826;  248,380;    0,000
177,829;  250,868;  245,964;    0,000
178,430;  258,208;  248,373;    0,000
179,030;  252,517;  250,642;    0,000
179,630;  253,414;  253,151;    0,000
180,230;  250,479;  249,422;    0,000
180,830;  255,279;  253,310;    0,000
181,430;  251,178;  249,852;    0,000
182,030;  257,573;  255,348;    0,000
182,630;  255,401;  252,722;    0,000
183,230;  261,532;  256,133;    0,000
183,830;  258,726;  255,035;    0,000
184,430;  262,025;  260,918;    0,000
185,030;  267,121;  265,794;    0,000
185,630;  273,065;  273,281;    0,000
186,229;  276,077;  276,549;    0,000
186,829;  277,900;  284,113;    0,000
187,429;  273,579;  284,655;    0,000
188,029;  272,378;  293,060;    0,000
188,628;  277,878;  296,144;    0,000
189,228;  274,739;  298,286;    0,000
189,828;  265,213;  301,049;    0,000
190,428;  259,244;  304,825;    0,000
191,027;  253,810;  307,658;    0,000
191,627;  255,322;  310,938;    0,000
192,227;  254,911;  308,449;    0,000
192,826;  253,535;  309,456;    0,000
193,426;  255,359;  305,352;    0,000
194,025;  267,634;  304,269;    0,000
194,625;  271,493;  297,290;    0,000
195,224;  274,044;  291,007;    0,000
195,824;  274,454;  284,067;    0,000
196,423;  278,980;  284,210;    0,000
197,023;  272,263;  273,975;    0,000
197,622;  278,614;  277,388;    0,000
198,221;  271,402;  271,407;    0,000
198,821;  269,482;  270,071;    0,000
199,420;  271,156;  267,807;    0,000
200,019;  269,392;  265,581;    0,000
200,619;  269,552;  266,708;    0,000
201,218;  271,416;  269,307;    0,000
201,817;  265,144;  262,689;    0,000
202,416;  276,080;  269,320;    0,000
203,016;  274,900;  267,603;    0,000
203,615;  277,561;  269,316;    0,000
204,214;  275,957;  268,581;    0,000
204,813;  278,687;  269,417;    0,000
205,412;  281,901;  270,504;    0,000
206,011;  279,187;  271,061;    0,000
206,610;  269,383;  262,624;    0,000
207,209;  267,998;  260,034;    0,000
207,808;  267,637;  263,300;    0,000
208,407;  270,478;  265,099;    0,000
209,006;  264,697;  259,918;    0,000
209,605;  267,591;  263,852;    0,000
210,204;  267,092;  261,611;    0,000
210,803;  270,804;  263,763;    0,000
211,402;  273,267;  267,671;    0,000
212,001;  272,891;  265,171;    0,000
212,599;  276,008;  265,613;    0,000
213,198;  275,143;  264,736;    0,000
213,797;  271,275;  258,824;    0,000
214,396;  274,243;  262,628;    0,000
214,994;  270,964;  259,891;    0,000
215,593;  270,548;  258,874;    0,000
216,192;  269,816;  256,996;    0,000
216,790;  268,393;  258,235;    0,000
217,389;  268,632;  262,211;    0,000
217,988;  269,787;  265,618;    0,000
218,586;  267,182;  261,907;    0,000
219,185;  265,631;  262,217;    0,000
219,783;  264,352;  261,125;    0,000
220,382;  265,189;  263,945;    0,000
220,980;  267,002;  265,514;    0,000
221,579;  270,115;  265,657;    0,000
222,177;  269,340;  265,160;    0,000
222,776;  269,405;  265,216;    0,000
223,374;  273,572;  267,622;    0,000
223,972;  273,214;  268,758;    0,000
224,571;  271,934;  266,607;    0,000
225,169;  271,263;  266,183;    0,000
225,767;  271,947;  263,128;    0,000
226,366;  274,703;  264,716;    0,000
226,964;  275,795;  265,381;    0,000
227,562;  274,669;  264,573;    0,000
228,160;  277,993;  266,307;    0,000
228,758;  274,684;  263,099;    0,000
229,356;  275,035;  264,018;    0,000
229,955;  272,016;  263,643;    0,000
230,553;  270,974;  262,812;    0,000
231,151;  267,328;  260,474;    0,000
231,749;  268,132;  261,002;    0,000
232,347;  268,660;  261,471;    0,000
232,945;  270,416;  263,359;    0,000
233,543;  270,298;  263,245;    0,000
234,141;  265,831;  259,740;    0,000
234,739;  267,782;  260,786;    0,000
235,337;  272,319;  266,127;    0,000
235,934;  273,319;  268,009;    0,000
236,532;  275,181;  269,234;    0,000
237,130;  274,583;  269,912;    0,000
237,728;  276,730;  271,060;    0,000
238,326;  284,826;  277,127;    0,000
238,923;  277,856;  273,391;    0,000
239,521;  276,927;  270,594;    0,000
240,119;  270,075;  264,347;    0,000
240,716;  270,759;  263,320;    0,000
241,314;  269,703;  260,868;    0,000
241,912;  261,095;  255,973;    0,000
242,509;  265,904;  260,687;    0,000
243,107;  270,876;  265,030;    0,000
243,704;  269,518;  263,643;    0,000
244,302;  277,433;  270,353;    0,000
244,899;  276,445;  268,025;    0,000
245,497;  285,887;  272,907;    0,000
246,094;  288,705;  270,101;    0,000
246,692;  281,368;  264,182;    0,000
247,289;  278,185;  258,082;    0,000
247,887;  281,604;  261,108;    0,000
248,484;  281,425;  261,014;    0,000
249,081;  275,620;  256,929;    0,000
249,679;  267,860;  254,140;    0,000
250,276;  269,674;  257,478;    0,000
250,873;  270,584;  257,489;    0,000
251,470;  278,308;  264,509;    0,000
252,067;  273,043;  257,864;    0,000
252,665;  270,553;  256,501;    0,000
253,262;  276,286;  261,268;    0,000
253,859;  279,108;  264,566;    0,000
254,456;  279,769;  266,818;    0,000
255,053;  278,588;  264,252;    0,000
255,650;  277,501;  264,688;    0,000
256,247;  279,893;  266,436;    0,000
256,844;  275,839;  262,412;    0,000
257,441;  280,026;  265,346;    0,000
258,038;  273,222;  256,555;    0,000
258,635;  277,287;  259,146;    0,000
259,232;  275,960;  258,136;    0,000
259,829;  273,703;  258,534;    0,000
260,426;  273,971;  260,226;    0,000
261,022;  278,714;  265,937;    0,000
261,619;  276,125;  263,246;    0,000
262,216;  278,985;  267,582;    0,000
262,813;  274,830;  263,416;    0,000
263,409;  278,186;  266,190;    0,000
264,006;  278,924;  263,910;    0,000
264,603;  283,395;  266,458;    0,000
265,199;  284,834;  266,212;    0,000
265,796;  280,395;  262,638;    0,000
266,393;  287,019;  270,051;    0,000
266,989;  285,064;  268,950;    0,000
267,586;  285,202;  269,445;    0,000
268,182;  284,873;  271,811;    0,000
268,779;  285,348;  271,297;    0,000
269,375;  286,811;  272,459;    0,000
269,971;  282,368;  269,812;    0,000
270,568;  280,902;  267,102;    0,000
271,164;  277,763;  265,667;    0,000
271,761;  279,229;  266,079;    0,000
272,357;  275,561;  262,751;    0,000
272,953;  272,789;  262,804;    0,000
273,550;  273,877;  263,553;    0,000
274,146;  278,125;  268,732;    0,000
274,742;  278,553;  267,040;    0,000
275,338;  280,400;  266,953;    0,000
275,934;  281,160;  269,701;    0,000
276,531;  278,308;  268,661;    0,000
277,127;  276,724;  266,833;    0,000
277,723;  271,632;  263,505;    0,000
278,319;  271,319;  260,610;    0,000
278,915;  275,466;  265,702;    0,000
279,511;  267,825;  261,135;    0,000
280,107;  267,743;  261,223;    0,000
280,703;  270,518;  261,557;    0,000
281,299;  271,011;  260,275;    0,000
281,895;  270,313;  260,898;    0,000
282,491;  266,392;  261,025;    0,000
283,086;  265,526;  260,856;    0,000
283,682;  271,451;  265,149;    0,000
284,278;  271,407;  263,061;    0,000
284,874;  268,711;  262,221;    0,000
285,470;  273,531;  268,220;    0,000
286,065;  274,028;  268,543;    0,000
286,661;  279,340;  271,852;    0,000
287,257;  271,602;  266,128;    0,000
287,852;  273,262;  269,122;    0,000
288,448;  269,980;  268,736;    0,000
289,044;  269,458;  267,845;    0,000
289,639;  265,301;  264,108;    0,000
290,235;  262,357;  261,245;    0,000
290,830;  259,710;  258,763;    0,000
291,426;  256,349;  256,138;    0,000
292,021;  255,223;  256,966;    0,000
292,617;  252,134;  252,863;    0,000
293,212;  250,767;  253,676;    0,000
293,807;  251,141;  251,590;    0,000
294,403;  256,140;  257,176;    0,000
294,998;  258,162;  259,197;    0,000
295,593;  259,369;  259,471;    0,000
296,189;  258,975;  257,496;    0,000
296,784;  261,533;  257,071;    0,000
297,379;  265,021;  258,813;    0,000
297,974;  264,901;  260,428;    0,000
298,570;  258,864;  252,022;    0,000
299,165;  254,784;  250,170;    0,000
299,760;  257,073;  250,522;    0,000
300,355;  258,804;  254,216;    0,000
300,950;  260,231;  256,042;    0,000
301,545;  261,873;  256,334;    0,000
302,140;  260,970;  255,723;    0,000
302,735;  261,944;  257,293;    0,000
303,330;  267,079;  259,781;    0,000
303,925;  264,863;  258,770;    0,000
304,520;  264,826;  258,857;    0,000
305,115;  263,543;  260,265;    0,000
305,709;  260,299;  258,280;    0,000
306,304;  258,320;  256,457;    0,000
306,899;  257,110;  255,726;    0,000
307,494;  259,122;  257,195;    0,000
308,089;  256,572;  253,993;    0,000
308,683;  260,449;  252,905;    0,000
309,278;  259,592;  249,781;    0,000
309,873;  265,328;  253,016;    0,000
310,467;  270,661;  257,138;    0,000
311,062;  274,712;  259,829;    0,000
311,656;  274,432;  256,316;    0,000
312,251;  282,529;  262,499;    0,000
312,846;  280,400;  260,375;    0,000
313,440;  283,419;  265,566;    0,000
314,035;  281,276;  262,472;    0,000
314,629;  283,635;  264,036;    0,000
315,223;  287,157;  266,656;    0,000
315,818;  288,825;  268,905;    0,000
316,412;  285,721;  265,768;    0,000
317,006;  289,522;  266,867;    0,000
317,601;  289,729;  264,141;    0,000
318,195;  293,758;  268,583;    0,000
318,789;  292,424;  267,468;    0,000
319,384;  293,418;  267,626;    0,000
319,978;  289,549;  264,087;    0,000
320,572;  295,036;  266,422;    0,000
321,166;  296,911;  270,525;    0,000
321,760;  297,583;  271,064;    0,000
322,354;  296,031;  268,470;    0,000
322,948;  295,241;  266,232;    0,000
323,542;  295,205;  262,171;    0,000
324,136;  296,538;  263,390;    0,000
324,730;  298,063;  263,056;    0,000
325,324;  298,682;  258,546;    0,000
325,918;  298,976;  257,352;    0,000
326,512;  302,350;  257,260;    0,000
327,106;  306,197;  260,163;    0,000
327,700;  306,025;  258,710;    0,000
328,294;  310,286;  262,356;    0,000
328,887;  310,579;  260,123;    0,000
329,481;  310,385;  260,701;    0,000
330,075;  313,508;  260,312;    0,000
330,669;  311,728;  256,986;    0,000
331,262;  308,597;  252,608;    0,000
331,856;  309,476;  252,427;    0,000
332,449;  309,373;  249,961;    0,000
333,043;  313,526;  253,043;    0,000
333,637;  311,690;  248,985;    0,000
334,230;  311,221;  247,576;    0,000
334,824;  315,563;  248,912;    0,000
335,417;  318,041;  249,551;    0,000
336,011;  320,678;  249,473;    0,000
336,604;  317,958;  243,618;    0,000
337,197;  315,172;  239,138;    0,000
337,791;  316,335;  241,150;    0,000
338,384;  316,956;  240,818;    0,000
338,977;  317,386;  239,483;    0,000
339,571;  314,860;  236,886;    0,000
340,164;  313,997;  235,665;    0,000
340,757;  320,273;  242,840;    0,000
341,350;  320,935;  242,880;    0,000
341,943;  321,845;  240,909;    0,000
342,537;  319,021;  238,109;    0,000
343,130;  318,259;  235,497;    0,000
343,723;  324,570;  237,841;    0,000
344,316;  325,937;  235,469;    0,000
344,909;  328,488;  233,252;    0,000
345,502;  337,626;  237,004;    0,000
346,095;  341,551;  238,174;    0,000
346,688;  348,722;  242,384;    0,000
347,281;  356,621;  241,916;    0,000
347,874;  360,035;  241,894;    0,000
348,466;  369,240;  249,562;    0,000
349,059;  374,561;  251,577;    0,000
349,652;  374,000;  246,126;    0,000
350,245;  378,901;  245,978;    0,000
350,838;  379,940;  244,679;    0,000
351,430;  382,357;  248,030;    0,000
352,023;  381,277;  244,793;    0,000
352,616;  381,968;  239,239;    0,000
353,208;  383,688;  239,597;    0,000
353,801;  391,417;  244,491;    0,000
354,393;  398,293;  245,289;    0,000
354,986;  405,413;  246,962;    0,000
355,578;  413,993;  246,807;    0,000
356,171;  422,405;  251,427;    0,000
356,763;  433,167;  255,434;    0,000
357,356;  438,424;  253,357;    0,000
357,948;  441,400;  250,493;    0,000
358,541;  449,078;  251,416;    0,000
359,133;  451,923;  251,927;    0,000
359,725;  454,311;  249,585;    0,000
360,318;  455,566;  246,151;    0,000
360,910;  457,440;  244,801;    0,000
361,502;  460,775;  244,266;    0,000
362,094;  461,700;  244,408;    0,000
362,686;  461,390;  239,185;    0,000
363,279;  463,561;  236,351;    0,000
363,871;  473,778;  241,677;    0,000
364,463;  480,543;  243,320;    0,000
365,055;  481,895;  241,634;    0,000
365,647;  488,557;  242,106;    0,000
366,239;  490,834;  240,313;    0,000
366,831;  498,001;  244,023;    0,000
367,423;  505,157;  246,456;    0,000
368,015;  500,467;  243,213;    0,000
368,607;  503,874;  243,993;    0,000
369,198;  513,184;  246,042;    0,000
369,790;  513,201;  244,907;    0,000
370,382;  521,138;  245,851;    0,000
370,974;  522,093;  243,277;    0,000
371,565;  527,072;  242,518;    0,000
372,157;  530,406;  240,254;    0,000
372,749;  532,808;  240,618;    0,000
373,341;  526,054;  234,984;    0,000
373,932;  534,942;  241,550;    0,000
374,524;  537,863;  243,270;    0,000
375,115;  538,317;  244,316;    0,000
375,707;  546,688;  247,594;    0,000
376,298;  555,958;  251,831;    0,000
376,890;  558,954;  253,240;    0,000
377,481;  570,879;  256,774;    0,000
378,073;  567,020;  250,168;    0,000
378,664;  571,200;  251,531;    0,000
379,255;  575,169;  252,147;    0,000
379,847;  570,640;  250,619;    0,000
380,438;  570,437;  247,796;    0,000
381,029;  573,117;  246,816;    0,000
381,620;  571,637;  244,288;    0,000
382,212;  575,043;  245,604;    0,000
382,803;  576,082;  243,854;    0,000
383,394;  580,124;  243,309;    0,000
383,985;  582,264;  240,939;    0,000
384,576;  590,648;  244,389;    0,000
385,167;  591,507;  242,575;    0,000
385,758;  598,337;  245,111;    0,000
386,349;  600,556;  243,712;    0,000
386,940;  609,337;  247,607;    0,000
387,531;  617,748;  252,439;    0,000
388,122;  628,533;  256,493;    0,000
388,713;  631,689;  252,911;    0,000
389,304;  644,640;  255,892;    0,000
389,895;  653,483;  257,693;    0,000
390,485;  670,824;  268,292;    0,000
391,076;  677,246;  265,205;    0,000
391,667;  692,211;  266,486;    0,000
392,258;  698,915;  265,736;    0,000
392,848;  711,237;  269,066;    0,000
393,439;  717,863;  266,276;    0,000
394,030;  725,483;  264,516;    0,000
394,620;  734,010;  260,640;    0,000
395,211;  747,174;  261,828;    0,000
395,801;  755,650;  259,375;    0,000
396,392;  767,165;  257,600;    0,000
396,982;  780,010;  255,339;    0,000
397,573;  799,100;  260,162;    0,000
398,163;  819,491;  261,856;    0,000
398,753;  829,747;  256,216;    0,000
399,344;  842,442;  255,062;    0,000
399,934;  853,463;  251,800;    0,000
400,524;  870,036;  254,322;    0,000
401,115;  885,117;  255,700;    0,000
401,705;  893,490;  250,461;    0,000
402,295;  907,339;  250,508;    0,000
402,885;  923,448;  250,221;    0,000
403,475;  941,727;  250,185;    0,000
404,065;  962,660;  251,519;    0,000
404,655;  981,149;  249,740;    0,000
405,245; 1003,565;  246,981;    0,000
405,835; 1030,255;  253,258;    0,000
406,425; 1053,750;  255,007;    0,000
407,015; 1079,201;  256,960;    0,000
407,605; 1103,666;  259,085;    0,000
408,195; 1128,451;  262,687;    0,000
408,785; 1148,546;  262,663;    0,000
409,375; 1164,732;  265,668;    0,000
409,965; 1189,676;  266,054;    0,000
410,554; 1214,267;  266,891;    0,000
411,144; 1233,450;  270,053;    0,000
411,734; 1255,482;  270,397;    0,000
412,324; 1273,101;  268,015;    0,000
412,913; 1299,039;  268,299;    0,000
413,503; 1325,730;  271,981;    0,000
414,092; 1340,572;  272,467;    0,000
414,682; 1357,154;  271,922;    0,000
415,271; 1375,253;  268,236;    0,000
415,861; 1389,706;  265,582;    0,000
416,450; 1409,063;  268,319;    0,000
417,040; 1421,510;  268,633;    0,000
417,629; 1435,413;  266,235;    0,000
418,219; 1452,870;  262,710;    0,000
418,808; 1467,570;  261,422;    0,000
419,397; 1481,345;  260,415;    0,000
419,986; 1500,765;  265,594;    0,000
420,576; 1516,582;  267,100;    0,000
421,165; 1531,613;  268,885;    0,000
421,754; 1540,898;  264,798;    0,000
422,343; 1555,791;  267,904;    0,000
422,932; 1566,541;  264,405;    0,000
423,521; 1585,365;  265,502;    0,000
424,111; 1592,441;  258,886;    0,000
424,700; 1603,507;  259,019;    0,000
425,289; 1613,869;  256,699;    0,000
425,878; 1622,121;  259,392;    0,000
426,466; 1623,277;  256,014;    0,000
427,055; 1632,422;  258,622;    0,000
427,644; 1638,454;  259,672;    0,000
428,233; 1648,841;  264,083;    0,000
428,822; 1652,578;  260,465;    0,000
429,411; 1660,571;  260,750;    0,000
429,999; 1674,109;  262,128;    0,000
430,588; 1681,480;  260,544;    0,000
431,177; 1683,466;  259,795;    0,000
431,766; 1683,886;  260,753;    0,000
432,354; 1688,284;  260,748;    0,000
432,943; 1687,700;  258,111;    0,000
433,531; 1693,585;  257,433;    0,000
434,120; 1695,526;  254,996;    0,000
434,708; 1702,906;  255,948;    0,000
435,297; 1710,239;  258,099;    0,000
435,885; 1713,797;  253,315;    0,000
436,474; 1716,068;  248,315;    0,000
437,062; 1721,563;  246,455;    0,000
437,650; 1726,774;  246,416;    0,000
438,239; 1732,566;  244,101;    0,000
438,827; 1738,230;  241,945;    0,000
439,415; 1745,432;  237,557;    0,000
440,003; 1759,054;  241,542;    0,000
440,592; 1770,939;  244,478;    0,000
441,180; 1785,100;  248,450;    0,000
441,768; 1796,939;  245,871;    0,000
442,356; 1811,891;  249,567;    0,000
442,944; 1826,400;  252,979;    0,000
443,532; 1842,974;  255,930;    0,000
444,120; 1852,741;  249,975;    0,000
444,708; 1867,116;  249,633;    0,000
445,296; 1882,500;  245,660;    0,000
445,884; 1898,506;  249,389;    0,000
446,472; 1910,808;  247,887;    0,000
447,060; 1928,989;  245,555;    0,000
447,647; 1949,652;  244,988;    0,000
448,235; 1971,876;  250,613;    0,000
448,823; 1991,287;  249,174;    0,000
449,411; 2011,842;  252,970;    0,000
449,998; 2029,163;  248,784;    0,000
450,586; 2050,527;  247,208;    0,000
451,173; 2078,066;  250,824;    0,000
451,761; 2098,836;  250,938;    0,000
452,349; 2121,271;  250,993;    0,000
452,936; 2149,491;  254,525;    0,000
453,524; 2176,674;  252,976;    0,000
454,111; 2203,941;  255,591;    0,000
454,698; 2234,503;  258,294;    0,000
455,286; 2258,158;  260,011;    0,000
455,873; 2285,867;  261,239;    0,000
456,461; 2319,638;  262,133;    0,000
457,048; 2340,465;  258,698;    0,000
457,635; 2371,434;  262,088;    0,000
458,222; 2404,504;  263,287;    0,000
458,810; 2437,361;  266,463;    0,000
459,397; 2460,526;  257,990;    0,000
459,984; 2493,571;  260,569;    0,000
460,571; 2524,241;  256,247;    0,000
461,158; 2561,808;  253,638;    0,000
461,745; 2594,635;  251,734;    0,000
462,332; 2632,121;  250,932;    0,000
462,919; 2672,455;  248,508;    0,000
463,506; 2730,933;  258,477;    0,000
464,093; 2773,771;  255,464;    0,000
464,680; 2822,139;  257,617;    0,000
465,267; 2876,763;  263,426;    0,000
465,853; 2923,957;  260,970;    0,000
466,440; 2975,900;  262,505;    0,000
467,027; 3028,700;  263,808;    0,000
467,614; 3070,707;  259,329;    0,000
468,200; 3126,853;  263,092;    0,000
468,787; 3178,512;  261,737;    0,000
469,374; 3231,618;  260,891;    0,000
469,960; 3284,518;  263,888;    0,000
470,547; 3342,106;  262,031;    0,000
471,133; 3390,956;  257,284;    0,000
471,720; 3448,166;  256,917;    0,000
472,306; 3502,389;  257,644;    0,000
472,893; 3554,651;  258,089;    0,000
473,479; 3611,302;  261,826;    0,000
474,065; 3670,594;  260,896;    0,000
474,652; 3725,400;  262,724;    0,000
475,238; 3787,626;  265,230;    0,000
475,824; 3847,729;  260,808;    0,000
476,410; 3913,162;  262,634;    0,000
476,997; 3977,295;  264,502;    0,000
477,583; 4046,292;  260,916;    0,000
478,169; 4113,599;  261,974;    0,000
478,755; 4183,192;  262,301;    0,000
479,341; 4241,055;  258,638;    0,000
479,927; 4298,875;  259,911;    0,000
480,513; 4362,749;  255,849;    0,000
481,099; 4423,796;  253,465;    0,000
481,685; 4481,328;  253,179;    0,000
482,271; 4544,580;  253,007;    0,000
482,857; 4602,266;  246,490;    0,000
483,443; 4675,917;  252,079;    0,000
484,028; 4737,908;  247,732;    0,000
484,614; 4801,491;  247,765;    0,000
485,200; 4856,918;  243,439;    0,000
485,786; 4915,018;  240,957;    0,000
486,371; 4973,675;  242,400;    0,000
486,957; 5034,343;  246,578;    0,000
487,543; 5093,127;  246,197;    0,000
488,128; 5161,748;  250,206;    0,000
488,714; 5220,913;  251,568;    0,000
489,299; 5290,528;  259,992;    0,000
489,885; 5353,065;  258,537;    0,000
490,470; 5414,740;  257,390;    0,000
491,055; 5467,965;  254,111;    0,000
491,641; 5518,405;  255,055;    0,000
492,226; 5573,009;  260,389;    0,000
492,811; 5610,389;  254,750;    0,000
493,397; 5653,591;  254,919;    0,000
493,982; 5700,098;  256,648;    0,000
494,567; 5741,843;  256,162;    0,000
495,152; 5785,211;  258,532;    0,000
495,738; 5820,568;  254,086;    0,000
496,323; 5858,896;  251,843;    0,000
496,908; 5904,608;  254,065;    0,000
497,493; 5946,552;  250,812;    0,000
498,078; 5984,316;  251,709;    0,000
498,663; 6015,546;  250,125;    0,000
499,248; 6056,125;  248,506;    0,000
499,833; 6095,915;  247,788;    0,000
500,417; 6120,855;  242,695;    0,000
501,002; 6151,260;  242,193;    0,000
501,587; 6175,812;  238,914;    0,000
502,172; 6207,628;  239,588;    0,000
502,757; 6238,789;  238,194;    0,000
503,341; 6263,020;  241,729;    0,000
503,926; 6281,522;  240,716;    0,000
504,511; 6307,688;  240,903;    0,000
505,095; 6342,907;  248,322;    0,000
505,680; 6365,329;  250,122;    0,000
506,264; 6395,221;  257,819;    0,000
506,849; 6403,471;  251,368;    0,000
507,433; 6428,990;  253,752;    0,000
508,018; 6454,481;  257,965;    0,000
508,602; 6480,165;  261,651;    0,000
509,186; 6495,468;  259,215;    0,000
509,771; 6515,805;  256,574;    0,000
510,355; 6536,190;  252,093;    0,000
510,939; 6561,594;  255,325;    0,000
511,524; 6585,876;  254,618;    0,000
512,108; 6612,237;  252,347;    0,000
512,692; 6632,747;  253,454;    0,000
513,276; 6660,699;  246,569;    0,000
513,860; 6698,374;  251,344;    0,000
514,444; 6712,571;  245,930;    0,000
515,028; 6751,152;  250,616;    0,000
515,612; 6772,505;  245,847;    0,000
516,196; 6801,197;  246,873;    0,000
516,780; 6835,312;  247,062;    0,000
517,364; 6854,236;  249,719;    0,000
517,948; 6884,196;  250,687;    0,000
518,532; 6916,167;  254,527;    0,000
519,115; 6943,585;  251,718;    0,000
519,699; 6987,032;  259,501;    0,000
520,283; 7022,441;  261,003;    0,000
520,867; 7045,705;  260,760;    0,000
521,450; 7092,171;  261,295;    0,000
522,034; 7120,431;  261,988;    0,000
522,617; 7140,058;  262,194;    0,000
523,201; 7167,594;  265,138;    0,000
523,784; 7179,977;  258,227;    0,000
524,368; 7202,268;  257,385;    0,000
524,951; 7239,605;  258,779;    0,000
525,535; 7261,861;  259,987;    0,000
526,118; 7291,974;  259,487;    0,000
526,702; 7334,386;  257,499;    0,000
527,285; 7374,344;  261,842;    0,000
527,868; 7417,381;  262,851;    0,000
528,451; 7467,071;  263,683;    0,000
529,035; 7513,337;  262,356;    0,000
529,618; 7552,302;  261,786;    0,000
530,201; 7610,806;  262,815;    0,000
530,784; 7658,493;  263,076;    0,000
531,367; 7722,567;  263,668;    0,000
531,950; 7768,857;  263,956;    0,000
532,533; 7811,526;  266,343;    0,000
533,116; 7867,412;  272,031;    0,000
533,699; 7924,247;  270,042;    0,000
534,282; 7962,458;  265,975;    0,000
534,865; 8016,282;  265,056;    0,000
535,448; 8059,221;  259,457;    0,000
536,030; 8124,699;  260,227;    0,000
536,613; 8196,680;  258,261;    0,000
537,196; 8256,433;  250,764;    0,000
537,778; 8335,306;  253,173;    0,000
538,361; 8417,421;  255,563;    0,000
538,944; 8502,660;  257,692;    0,000
539,526; 8596,691;  264,423;    0,000
540,109; 8682,404;  267,570;    0,000
540,691; 8765,452;  267,620;    0,000
541,274; 8866,473;  271,078;    0,000
541,856; 8957,745;  271,170;    0,000
542,439; 9054,950;  275,525;    0,000
543,021; 9150,351;  273,547;    0,000
543,603; 9249,588;  272,220;    0,000
544,186; 9352,494;  268,326;    0,000
544,768; 9458,167;  270,325;    0,000
545,350; 9555,034;  269,367;    0,000
545,932; 9652,112;  268,234;    0,000
546,515; 9761,606;  265,942;    0,000
547,097; 9867,113;  265,698;    0,000
547,679; 9973,442;  267,069;    0,000
548,261;10105,098;  271,534;    0,000
548,843;10225,567;  269,930;    0,000
549,425;10338,543;  269,030;    0,000
550,007;10457,537;  271,009;    0,000
550,589;10574,867;  270,362;    0,000
551,171;10689,884;  270,839;    0,000
551,752;10801,055;  265,105;    0,000
552,334;10908,654;  260,576;    0,000
552,916;11013,641;  261,238;    0,000
553,498;11131,133;  260,454;    0,000
554,079;11246,666;  256,369;    0,000
554,661;11383,778;  255,012;    0,000
555,243;11524,771;  255,472;    0,000
555,824;11664,781;  255,996;    0,000
556,406;11791,311;  254,216;    0,000
556,987;11949,729;  251,841;    0,000
557,569;12099,633;  251,488;    0,000
558,150;12255,133;  256,323;    0,000
558,732;12404,831;  259,544;    0,000
559,313;12560,244;  259,289;    0,000
559,894;12715,256;  257,912;    0,000
560,476;12882,749;  258,311;    0,000
561,057;13019,677;  258,022;    0,000
561,638;13175,858;  261,086;    0,000
562,219;13325,736;  254,565;    0,000
562,801;13457,260;  252,044;    0,000
563,382;13613,590;  252,728;    0,000
563,963;13778,875;  255,558;    0,000
564,544;13935,494;  254,343;    0,000
565,125;14103,838;  251,563;    0,000
565,706;14274,017;  252,219;    0,000
566,287;14446,763;  253,565;    0,000
566,868;14624,822;  250,874;    0,000
567,449;14787,618;  251,190;    0,000
568,030;14943,944;  248,971;    0,000
568,610;15114,985;  251,542;    0,000
569,191;15287,384;  254,743;    0,000
569,772;15463,701;  252,371;    0,000
570,353;15646,774;  250,584;    0,000
570,933;15854,575;  251,704;    0,000
571,514;16042,534;  248,239;    0,000
572,094;16228,542;  247,208;    0,000
572,675;16409,867;  244,184;    0,000
573,256;16614,490;  246,226;    0,000
573,836;16809,664;  243,062;    0,000
574,417;17006,445;  245,329;    0,000
574,997;17203,793;  250,444;    0,000
575,577;17408,490;  252,240;    0,000
576,158;17636,941;  255,950;    0,000
576,738;17865,121;  261,059;    0,000
577,318;18091,619;  260,621;    0,000
577,898;18324,951;  264,233;    0,000
578,479;18554,643;  264,338;    0,000
579,059;18752,146;  259,650;    0,000
579,639;18980,178;  260,547;    0,000
580,219;19196,291;  258,823;    0,000
580,799;19398,289;  254,051;    0,000
581,379;19610,896;  249,415;    0,000
581,959;19808,180;  247,527;    0,000
582,539;20016,008;  249,237;    0,000
583,119;20227,750;  247,717;    0,000
583,699;20429,561;  247,045;    0,000
584,279;20613,654;  245,597;    0,000
584,859;20830,900;  250,336;    0,000
585,438;21033,775;  251,422;    0,000
586,018;21240,369;  251,537;    0,000
586,598;21451,887;  250,061;    0,000
587,177;21664,322;  250,660;    0,000
587,757;21854,553;  251,752;    0,000
588,337;22058,674;  253,612;    0,000
588,916;22266,393;  252,747;    0,000
589,496;22433,152;  251,183;    0,000
590,075;22627,295;  254,184;    0,000
590,654;22791,035;  253,285;    0,000
591,234;22947,770;  253,104;    0,000
591,813;23135,047;  253,109;    0,000
592,393;23327,879;  250,467;    0,000
592,972;23485,805;  248,901;    0,000
593,551;23677,881;  253,295;    0,000
594,130;23842,375;  252,929;    0,000
594,710;24018,639;  256,140;    0,000
595,289;24203,395;  256,350;    0,000
595,868;24357,838;  254,909;    0,000
596,447;24511,988;  257,732;    0,000
597,026;24668,748;  259,218;    0,000
597,605;24794,334;  259,170;    0,000
598,184;24932,721;  253,643;    0,000
598,763;25068,061;  253,969;    0,000
599,342;25203,039;  254,811;    0,000
599,920;25319,566;  254,227;    0,000
600,499;25418,207;  257,179;    0,000
601,078;25501,059;  254,611;    0,000
601,657;25580,553;  254,015;    0,000
602,236;25648,049;  258,225;    0,000
602,814;25703,063;  255,697;    0,000
603,393;25772,340;  254,089;    0,000
603,971;25847,160;  257,703;    0,000
604,550;25936,672;  255,885;    0,000
605,128;26009,875;  255,768;    0,000
605,707;26107,803;  258,010;    0,000
606,285;26227,188;  256,517;    0,000
606,864;26339,748;  259,545;    0,000
607,442;26449,201;  261,543;    0,000
608,020;26554,910;  262,527;    0,000
608,599;26652,506;  261,153;    0,000
609,177;26808,125;  267,088;    0,000
609,755;26957,389;  262,899;    0,000
610,333;27059,850;  260,668;    0,000
610,912;27189,096;  261,503;    0,000
611,490;27295,225;  261,456;    0,000
612,068;27406,242;  257,011;    0,000
612,646;27526,674;  259,401;    0,000
613,224;27607,787;  258,192;    0,000
613,802;27679,443;  259,362;    0,000
614,380;27759,697;  262,417;    0,000
614,958;27826,586;  261,604;    0,000
615,535;27907,879;  259,556;    0,000
616,113;27986,240;  263,270;    0,000
616,691;28012,154;  260,499;    0,000
617,269;28058,105;  257,929;    0,000
617,846;28096,273;  258,597;    0,000
618,424;28143,660;  257,153;    0,000
619,002;28161,711;  257,412;    0,000
619,579;28155,904;  258,127;    0,000
620,157;28132,863;  259,895;    0,000
620,734;28143,557;  263,295;    0,000
621,312;28127,641;  263,716;    0,000
621,889;28105,912;  264,051;    0,000
622,467;28103,445;  264,926;    0,000
623,044;28122,174;  265,122;    0,000
623,621;28134,588;  266,501;    0,000
624,198;28165,299;  262,823;    0,000
624,776;28217,639;  259,284;    0,000
625,353;28290,072;  258,854;    0,000
625,930;28377,592;  258,825;    0,000
626,507;28447,475;  260,944;    0,000
627,084;28559,939;  259,324;    0,000
627,661;28646,002;  257,543;    0,000
628,238;28768,914;  258,200;    0,000
628,815;28865,783;  258,318;    0,000
629,392;28955,607;  257,186;    0,000
629,969;29067,725;  258,527;    0,000
630,546;29170,969;  257,854;    0,000
631,123;29239,035;  259,866;    0,000
631,700;29343,549;  262,100;    0,000
632,276;29426,117;  261,257;    0,000
632,853;29487,875;  265,053;    0,000
633,430;29536,426;  268,348;    0,000
634,006;29561,504;  268,139;    0,000
634,583;29609,535;  271,242;    0,000
635,160;29630,145;  271,058;    0,000
635,736;29654,049;  270,849;    0,000
636,313;29675,949;  269,367;    0,000
636,889;29724,541;  264,866;    0,000
637,466;29785,961;  266,076;    0,000
638,042;29843,371;  265,493;    0,000
638,618;29897,334;  260,950;    0,000
639,194;29964,193;  257,652;    0,000
639,771;30048,391;  254,357;    0,000
640,347;30132,225;  258,360;    0,000
640,923;30199,064;  258,692;    0,000
641,499;30244,705;  256,268;    0,000
642,075;30314,689;  255,886;    0,000
642,651;30394,131;  257,593;    0,000
643,227;30480,557;  260,449;    0,000
643,803;30534,525;  265,937;    0,000
644,379;30575,338;  264,418;    0,000
644,955;30603,279;  264,528;    0,000
645,531;30660,949;  266,136;    0,000
646,107;30713,305;  266,310;    0,000
646,683;30742,701;  261,630;    0,000
647,259;30745,613;  260,637;    0,000
647,834;30762,941;  258,141;    0,000
648,410;30782,924;  253,875;    0,000
648,986;30818,994;  253,129;    0,000
649,561;30857,135;  254,212;    0,000
650,137;30856,289;  252,304;    0,000
650,712;30841,588;  252,114;    0,000
651,288;30885,357;  253,099;    0,000
651,863;30944,041;  253,534;    0,000
652,439;31022,953;  253,932;    0,000
653,014;31111,266;  255,795;    0,000
653,589;31194,807;  250,301;    0,000
654,165;31308,547;  250,942;    0,000
654,740;31441,260;  252,702;    0,000
655,315;31532,186;  249,966;    0,000
655,890;31653,385;  252,999;    0,000
656,465;31741,354;  253,017;    0,000
657,040;31828,422;  248,400;    0,000
657,616;31920,949;  246,150;    0,000
658,191;32032,633;  247,818;    0,000
658,766;32136,674;  249,874;    0,000
659,340;32275,457;  248,099;    0,000
659,915;32381,598;  246,527;    0,000
660,490;32500,238;  245,980;    0,000
661,065;32608,865;  247,975;    0,000
661,640;32731,750;  247,348;    0,000
662,215;32836,004;  245,919;    0,000
662,789;32944,473;  246,881;    0,000
663,364;33047,887;  248,277;    0,000
663,939;33128,328;  243,695;    0,000
664,513;33220,066;  246,045;    0,000
665,088;33339,324;  245,948;    0,000
665,662;33443,680;  249,638;    0,000
666,237;33567,348;  251,479;    0,000
666,811;33694,504;  246,859;    0,000
667,385;33817,715;  248,055;    0,000
667,960;33973,629;  247,302;    0,000
668,534;34154,668;  245,849;    0,000
669,108;34295,281;  245,342;    0,000
669,683;34456,492;  242,561;    0,000
670,257;34610,035;  238,549;    0,000
670,831;34770,848;  237,278;    0,000
671,405;34949,828;  236,535;    0,000
671,979;35140,984;  235,432;    0,000
672,553;35307,566;  234,939;    0,000
673,127;35520,895;  236,778;    0,000
673,701;35708,664;  234,465;    0,000
674,275;35914,590;  234,272;    0,000
674,849;36154,961;  236,680;    0,000
675,423;36350,500;  235,712;    0,000
675,997;36533,184;  237,219;    0,000
676,570;36730,012;  236,931;    0,000
677,144;36889,008;  234,048;    0,000
677,718;37071,148;  239,117;    0,000
678,292;37249,020;  241,727;    0,000
678,865;37368,676;  241,063;    0,000
679,439;37519,387;  242,267;    0,000
680,012;37644,656;  241,816;    0,000
680,586;37755,398;  241,838;    0,000
681,159;37896,637;  242,501;    0,000
681,733;38011,852;  242,400;    0,000
682,306;38126,535;  239,225;    0,000
682,879;38249,445;  240,657;    0,000
683,453;38350,660;  240,089;    0,000
684,026;38507,898;  242,606;    0,000
684,599;38677,156;  242,043;    0,000
685,172;38845,254;  244,760;    0,000
685,745;39021,695;  244,524;    0,000
686,318;39182,234;  245,944;    0,000
686,891;39360,531;  244,057;    0,000
687,464;39546,359;  245,022;    0,000
688,037;39684,715;  244,939;    0,000
688,610;39823,141;  243,183;    0,000
689,183;39959,953;  242,404;    0,000
689,756;40106,109;  242,387;    0,000
690,329;40252,090;  240,662;    0,000
690,902;40398,633;  243,891;    0,000
691,474;40564,246;  241,976;    0,000
692,047;40803,059;  238,492;    0,000
692,620;41041,410;  243,035;    0,000
693,192;41257,137;  242,863;    0,000
693,765;41443,535;  242,311;    0,000
694,337;41598,605;  241,948;    0,000
694,910;41806,191;  242,407;    0,000
695,482;41995,102;  244,929;    0,000
696,055;42155,801;  246,681;    0,000
696,627;42341,996;  247,162;    0,000
697,199;42491,324;  241,539;    0,000
697,772;42674,195;  239,887;    0,000
698,344;42919,492;  240,238;    0,000
698,916;43111,277;  235,678;    0,000
699,488;43316,461;  233,481;    0,000
700,060;43516,941;  232,502;    0,000
700,633;43664,598;  229,934;    0,000
701,205;43852,797;  233,210;    0,000
701,777;44017,223;  236,673;    0,000
702,349;44161,180;  237,645;    0,000
702,920;44282,148;  239,883;    0,000
703,492;44397,973;  238,511;    0,000
704,064;44504,215;  237,125;    0,000
704,636;44657,969;  237,060;    0,000
705,208;44852,313;  234,116;    0,000
705,779;45067,207;  230,690;    0,000
706,351;45302,891;  230,592;    0,000
706,923;45525,246;  226,774;    0,000
707,494;45808,031;  228,590;    0,000
708,066;46090,273;  228,357;    0,000
708,638;46377,883;  226,571;    0,000
709,209;46657,195;  229,691;    0,000
709,780;46913,910;  228,023;    0,000
710,352;47166,551;  225,869;    0,000
710,923;47471,863;  230,893;    0,000
711,494;47707,844;  227,040;    0,000
712,066;47970,113;  230,141;    0,000
712,637;48178,598;  228,793;    0,000
713,208;48425,055;  229,881;    0,000
713,779;48691,109;  232,612;    0,000
714,350;48914,148;  234,140;    0,000
714,922;49097,633;  232,259;    0,000
715,492;49298,848;  234,523;    0,000
716,064;49459,316;  232,506;    0,000
716,634;49649,758;  232,442;    0,000
717,205;49829,270;  235,004;    0,000
717,776;50001,082;  234,572;    0,000
718,347;50162,320;  236,812;    0,000
718,918;50368,605;  237,204;    0,000
719,489;50556,973;  238,098;    0,000
720,059;50741,414;  238,865;    0,000
720,630;50935,785;  240,833;    0,000
721,201;51075,910;  238,909;    0,000
721,771;51249,766;  240,538;    0,000
722,342;51468,105;  241,133;    0,000
722,912;51680,578;  239,642;    0,000
723,483;51920,504;  239,604;    0,000
724,053;52154,617;  241,219;    0,000
724,623;52392,344;  239,823;    0,000
725,194;52666,496;  239,468;    0,000
725,764;52931,781;  239,967;    0,000
726,334;53178,207;  238,789;    0,000
726,904;53376,891;  235,993;    0,000
727,475;53610,332;  239,583;    0,000
728,045;53819,586;  237,339;    0,000
728,615;54067,344;  237,634;    0,000
729,185;54317,855;  238,833;    0,000
729,755;54515,340;  234,822;    0,000
730,325;54706,406;  231,614;    0,000
730,895;54968,648;  234,866;    0,000
731,465;55139,176;  230,298;    0,000
732,034;55356,516;  231,329;    0,000
732,604;55523,016;  235,100;    0,000
733,174;55672,113;  232,612;    0,000
733,744;55884,938;  234,120;    0,000
734,313;56138,422;  239,443;    0,000
734,883;56363,379;  236,824;    0,000
735,453;56649,789;  239,424;    0,000
736,022;56875,246;  237,785;    0,000
736,592;57141,172;  237,104;    0,000
737,161;57396,840;  240,513;    0,000
737,731;57623,969;  242,932;    0,000
738,300;57805,320;  240,007;    0,000
738,869;57929,891;  241,203;    0,000
739,439;58032,633;  237,089;    0,000
740,008;58187,543;  239,286;    0,000
740,577;58286,727;  237,025;    0,000
741,146;58449,469;  235,741;    0,000
741,715;58603,582;  232,914;    0,000
742,284;58746,109;  234,189;    0,000
742,853;58978,207;  235,525;    0,000
743,422;59172,777;  238,814;    0,000
743,991;59329,203;  235,422;    0,000
744,560;59552,086;  236,225;    0,000
745,129;59751,469;  234,873;    0,000
745,698;59953,684;  235,886;    0,000
746,267;60212,809;  235,688;    0,000
746,836;60429,320;  233,993;    0,000
747,404;60667,305;  236,829;    0,000
747,973;60932,902;  240,615;    0,000
748,542;61091,172;  240,500;    0,000
749,110;61202,098;  242,198;    0,000
749,679;61294,824;  242,237;    0,000
750,247;61330,195;  238,475;    0,000
750,816;61422,434;  240,612;    0,000
751,384;61469,832;  235,798;    0,000
751,952;61512,918;  234,616;    0,000
752,521;61561,941;  233,754;    0,000
753,089;61654,883;  231,118;    0,000
753,657;61757,184;  231,199;    0,000
754,225;61884,250;  234,364;    0,000
754,794;61919,551;  233,773;    0,000
755,362;62022,977;  235,392;    0,000
755,930;62136,047;  238,381;    0,000
756,498;62259,102;  237,676;    0,000
757,066;62300,328;  238,056;    0,000
757,634;62372,496;  239,277;    0,000
758,202;62354,293;  239,633;    0,000
758,769;62376,094;  242,254;    0,000
759,337;62330,520;  242,770;    0,000
759,905;62225,418;  237,417;    0,000
760,473;62252,613;  238,949;    0,000
761,041;62260,441;  236,451;    0,000
761,608;62239,398;  233,946;    0,000
762,176;62304,250;  234,538;    0,000
762,743;62329,707;  231,104;    0,000
763,311;62403,664;  227,092;    0,000
763,878;62514,430;  228,504;    0,000
764,446;62553,559;  225,817;    0,000
765,013;62639,215;  228,188;    0,000
765,581;62671,566;  229,577;    0,000
766,148;62743,680;  228,399;    0,000
766,715;62807,820;  228,065;    0,000
767,282;62866,676;  232,754;    0,000
767,849;62886,988;  231,726;    0,000
768,417;62858,430;  233,958;    0,000
768,984;62806,426;  230,974;    0,000
769,551;62738,324;  230,177;    0,000
770,118;62652,809;  227,122;    0,000
770,685;62522,852;  225,045;    0,000
771,252;62346,891;  220,230;    0,000
771,819;62246,504;  221,265;    0,000
772,385;62143,988;  218,347;    0,000
772,952;62051,887;  217,637;    0,000
773,519;62013,270;  216,848;    0,000
774,086;61911,082;  217,023;    0,000
774,652;61887,922;  217,362;    0,000
775,219;61871,219;  218,477;    0,000
775,786;61854,289;  220,400;    0,000
776,352;61789,930;  221,159;    0,000
776,919;61738,215;  230,688;    0,000
777,485;61644,727;  232,504;    0,000
778,051;61636,582;  235,978;    0,000
778,618;61535,695;  236,768;    0,000
779,184;61453,047;  233,546;    0,000
779,750;61368,762;  232,536;    0,000
780,317;61319,859;  234,851;    0,000
780,883;61263,516;  229,439;    0,000
781,449;61188,125;  228,476;    0,000
782,015;61033,582;  229,833;    0,000
782,581;60922,750;  232,019;    0,000
783,147;60896,121;  236,782;    0,000
783,713;60762,305;  238,406;    0,000
784,279;60632,160;  241,429;    0,000
784,845;60440,102;  240,041;    0,000
785,411;60352,199;  243,343;    0,000
785,977;60261,266;  238,812;    0,000
786,542;60215,637;  240,275;    0,000
787,108;60049,449;  240,417;    0,000
787,674;59985,090;  239,449;    0,000
788,239;59931,930;  237,405;    0,000
788,805;59889,484;  238,727;    0,000
789,371;59827,199;  237,589;    0,000
789,936;59723,766;  238,830;    0,000
790,501;59601,766;  238,814;    0,000
791,067;59535,977;  237,998;    0,000
791,632;59394,977;  234,741;    0,000
792,198;59281,215;  235,129;    0,000
792,763;59189,559;  233,158;    0,000
793,328;59106,414;  231,396;    0,000
793,893;59050,152;  228,522;    0,000
794,458;59008,980;  225,048;    0,000
795,024;58932,563;  225,206;    0,000
795,589;58864,504;  225,859;    0,000
796,154;58738,875;  223,248;    0,000
796,719;58645,516;  223,590;    0,000
797,284;58531,898;  223,660;    0,000
797,848;58449,168;  224,112;    0,000
798,413;58313,250;  226,977;    0,000
798,978;58194,863;  229,005;    0,000
799,543;58074,789;  228,090;    0,000
800,108;57994,719;  230,094;    0,000
800,672;57917,457;  231,323;    0,000
801,237;57814,984;  231,008;    0,000
801,801;57726,582;  235,200;    0,000
802,366;57658,867;  234,892;    0,000
802,930;57509,008;  232,145;    0,000
803,495;57373,320;  238,275;    0,000
804,059;57174,617;  238,431;    0,000
804,624;56923,301;  237,756;    0,000
805,188;56692,813;  238,060;    0,000
805,752;56424,797;  236,802;    0,000
806,317;56187,852;  234,891;    0,000
806,881;56045,008;  236,899;    0,000
807,445;55892,492;  230,858;    0,000
808,009;55797,016;  231,987;    0,000
808,573;55720,031;  233,258;    0,000
809,137;55619,727;  233,104;    0,000
809,701;55574,555;  233,049;    0,000
810,265;55469,523;  231,842;    0,000
810,829;55330,438;  227,584;    0,000
811,393;55194,133;  228,269;    0,000
811,956;55047,090;  224,552;    0,000
812,520;54936,688;  221,271;    0,000
813,084;54790,313;  217,529;    0,000
813,647;54642,410;  215,274;    0,000
814,211;54512,066;  216,708;    0,000
814,775;54413,820;  217,350;    0,000
815,338;54287,762;  219,455;    0,000
815,902;54135,402;  219,377;    0,000
816,465;53960,402;  221,132;    0,000
817,029;53846,215;  224,254;    0,000
817,592;53692,227;  222,554;    0,000
818,155;53535,465;  226,002;    0,000
818,718;53324,250;  227,508;    0,000
819,282;53162,047;  225,424;    0,000
819,845;53029,531;  228,889;    0,000
820,408;52833,102;  229,960;    0,000
820,971;52599,086;  231,107;    0,000
821,534;52338,598;  236,602;    0,000
822,097;52109,168;  233,057;    0,000
822,660;51936,508;  234,239;    0,000
823,223;51738,906;  233,434;    0,000
823,786;51487,875;  230,461;    0,000
824,349;51279,871;  228,685;    0,000
824,911;51043,027;  223,821;    0,000
825,474;50859,199;  222,253;    0,000
826,037;50676,980;  224,450;    0,000
826,599;50477,109;  226,851;    0,000
827,162;50311,820;  227,611;    0,000
827,724;50229,617;  226,382;    0,000
828,287;50136,957;  228,899;    0,000
828,849;50036,184;  231,111;    0,000
829,412;49873,070;  231,830;    0,000
829,974;49708,109;  231,897;    0,000
830,536;49505,395;  227,686;    0,000
831,099;49274,035;  226,495;    0,000
831,661;49050,773;  229,581;    0,000
832,223;48879,945;  228,140;    0,000
832,785;48757,914;  226,943;    0,000
833,347;48672,313;  223,548;    0,000
833,909;48539,781;  221,826;    0,000
834,471;48458,223;  225,598;    0,000
835,033;48369,793;  226,557;    0,000
835,595;48235,977;  227,485;    0,000
836,157;48056,047;  229,588;    0,000
836,719;47870,027;  230,188;    0,000
837,281;47680,371;  230,429;    0,000
837,842;47550,211;  233,375;    0,000
838,404;47423,750;  230,963;    0,000
838,966;47309,648;  229,123;    0,000
839,527;47219,863;  223,262;    0,000
840,089;47131,059;  217,217;    0,000
840,650;47056,484;  217,485;    0,000
841,212;46989,012;  217,210;    0,000
841,773;46874,168;  212,860;    0,000
842,335;46741,824;  209,262;    0,000
842,896;46567,348;  209,367;    0,000
843,457;46391,918;  212,416;    0,000
844,018;46231,547;  218,072;    0,000
844,580;45987,844;  218,978;    0,000
845,141;45725,156;  217,723;    0,000
845,702;45486,938;  218,589;    0,000
846,263;45262,137;  221,644;    0,000
846,824;45064,848;  220,837;    0,000
847,385;44865,348;  220,625;    0,000
847,946;44665,473;  215,786;    0,000
848,507;44566,172;  218,610;    0,000
849,068;44449,457;  216,085;    0,000
849,628;44321,055;  211,449;    0,000
850,189;44159,465;  205,528;    0,000
850,750;44047,207;  206,811;    0,000
851,310;43931,203;  204,676;    0,000
851,871;43839,133;  205,028;    0,000
852,432;43700,516;  198,534;    0,000
852,992;43579,172;  203,449;    0,000
853,552;43450,641;  204,902;    0,000
854,113;43352,953;  209,414;    0,000
854,673;43227,621;  208,582;    0,000
855,234;43099,605;  208,415;    0,000
855,794;42950,375;  213,995;    0,000
856,354;42806,531;  213,423;    0,000
856,914;42691,258;  211,564;    0,000
857,474;42582,898;  212,196;    0,000
858,034;42513,039;  212,799;    0,000
858,595;42481,949;  215,144;    0,000
859,155;42411,934;  214,486;    0,000
859,714;42383,117;  209,880;    0,000
860,274;42399,660;  212,705;    0,000
860,834;42394,457;  212,379;    0,000
861,394;42404,141;  212,302;    0,000
861,954;42394,340;  211,598;    0,000
862,514;42322,406;  210,691;    0,000
863,073;42300,133;  213,722;    0,000
863,633;42227,488;  212,891;    0,000
864,192;42126,785;  210,689;    0,000
864,752;42043,527;  209,199;    0,000
865,311;41944,367;  208,288;    0,000
865,871;41860,496;  205,683;    0,000
866,430;41801,949;  204,574;    0,000
866,990;41735,977;  201,914;    0,000
867,549;41644,531;  201,525;    0,000
868,108;41552,688;  203,232;    0,000
868,667;41470,328;  204,611;    0,000
869,227;41394,570;  207,483;    0,000
869,786;41283,766;  209,208;    0,000
870,345;41176,422;  207,517;    0,000
870,904;41050,047;  203,678;    0,000
871,463;40960,063;  202,104;    0,000
872,022;40926,832;  202,946;    0,000
872,581;40870,156;  200,013;    0,000
873,140;40799,383;  194,955;    0,000
873,698;40773,840;  193,143;    0,000
874,257;40771,906;  193,468;    0,000
874,816;40793,551;  194,948;    0,000
875,374;40818,051;  195,803;    0,000
875,933;40796,980;  192,751;    0,000
876,492;40755,551;  195,932;    0,000
877,050;40728,621;  194,929;    0,000
877,609;40657,336;  195,626;    0,000
878,167;40568,652;  192,221;    0,000
878,725;40430,449;  194,023;    0,000
879,284;40336,551;  196,801;    0,000
879,842;40190,180;  194,839;    0,000
880,400;40098,594;  196,182;    0,000
880,958;40001,207;  196,298;    0,000
881,517;39904,238;  197,416;    0,000
882,075;39834,594;  201,511;    0,000
882,633;39790,121;  200,106;    0,000
883,191;39762,395;  199,201;    0,000
883,749;39777,922;  200,656;    0,000
884,307;39744,438;  202,009;    0,000
884,865;39716,051;  204,322;    0,000
885,422;39698,980;  202,072;    0,000
885,980;39671,980;  203,992;    0,000
886,538;39653,836;  205,883;    0,000
887,095;39590,094;  205,609;    0,000
887,653;39527,836;  204,133;    0,000
888,211;39508,109;  205,678;    0,000
888,768;39484,980;  207,231;    0,000
889,326;39496,320;  209,058;    0,000
889,883;39489,707;  207,308;    0,000
890,441;39506,938;  206,746;    0,000
890,998;39513,094;  209,438;    0,000
891,555;39497,277;  215,592;    0,000
892,112;39414,023;  210,616;    0,000
892,670;39368,922;  213,531;    0,000
893,227;39238,180;  211,803;    0,000
893,784;39105,551;  211,318;    0,000
894,341;38957,578;  214,995;    0,000
894,898;38772,980;  211,581;    0,000
895,455;38611,023;  210,065;    0,000
896,012;38479,793;  210,223;    0,000
896,569;38318,465;  207,255;    0,000
897,126;38206,266;  210,205;    0,000
897,682;38110,578;  210,839;    0,000
898,239;38015,035;  208,949;    0,000
898,796;37926,906;  210,133;    0,000
899,352;37814,379;  209,989;    0,000
899,909;37728,008;  211,693;    0,000
900,466;37647,480;  213,306;    0,000
901,022;37546,320;  214,936;    0,000
901,579;37375,066;  214,448;    0,000
902,135;37165,180;  212,922;    0,000
902,691;36960,879;  214,362;    0,000
903,248;36770,695;  213,655;    0,000
903,804;36549,949;  212,333;    0,000
904,360;36292,008;  211,808;    0,000
904,916;36038,352;  209,473;    0,000
905,472;35792,594;  210,672;    0,000
906,028;35600,879;  210,831;    0,000
906,584;35400,809;  208,488;    0,000
907,140;35255,152;  208,052;    0,000
907,696;35113,051;  207,505;    0,000
908,252;35008,906;  206,938;    0,000
908,808;34891,777;  205,415;    0,000
909,364;34795,992;  206,212;    0,000
909,920;34663,594;  207,193;    0,000
910,475;34552,836;  206,481;    0,000
911,031;34396,906;  206,818;    0,000
911,587;34250,238;  204,205;    0,000
912,142;34085,121;  202,702;    0,000
912,698;33955,180;  203,679;    0,000
913,253;33838,492;  199,116;    0,000
913,808;33717,180;  198,301;    0,000
914,364;33584,449;  196,593;    0,000
914,919;33464,938;  199,152;    0,000
915,474;33365,922;  203,879;    0,000
916,030;33308,008;  202,706;    0,000
916,585;33222,852;  202,881;    0,000
917,140;33156,551;  203,733;    0,000
917,695;33080,738;  200,922;    0,000
918,250;33029,336;  202,375;    0,000
918,805;32952,863;  197,023;    0,000
919,360;32819,793;  194,792;    0,000
919,915;32680,580;  197,021;    0,000
920,469;32585,736;  198,139;    0,000
921,024;32456,664;  198,038;    0,000
921,579;32353,951;  200,676;    0,000
922,134;32253,207;  200,002;    0,000
922,688;32141,723;  202,786;    0,000
923,243;32117,865;  205,515;    0,000
923,797;32049,908;  204,035;    0,000
924,352;31948,551;  204,322;    0,000
924,906;31843,365;  205,568;    0,000
925,461;31693,465;  205,309;    0,000
926,015;31557,580;  202,242;    0,000
926,569;31433,908;  200,212;    0,000
927,124;31268,508;  200,593;    0,000
927,678;31144,979;  202,859;    0,000
928,232;30982,680;  202,076;    0,000
928,786;30849,779;  201,123;    0,000
929,340;30752,180;  203,869;    0,000
929,894;30614,250;  205,491;    0,000
930,448;30509,494;  207,492;    0,000
931,002;30437,352;  207,396;    0,000
931,556;30363,379;  205,768;    0,000
932,110;30329,193;  201,841;    0,000
932,663;30288,936;  201,971;    0,000
933,217;30227,250;  200,338;    0,000
933,771;30165,637;  202,885;    0,000
934,324;30068,936;  202,963;    0,000
934,878;29898,293;  198,058;    0,000
935,432;29715,551;  199,585;    0,000
935,985;29490,479;  202,416;    0,000
936,538;29278,352;  204,139;    0,000
937,092;29108,508;  202,976;    0,000
937,645;28931,137;  200,878;    0,000
938,198;28790,551;  202,681;    0,000
938,752;28730,521;  208,393;    0,000
939,305;28653,365;  208,148;    0,000
939,858;28617,723;  208,961;    0,000
940,411;28556,693;  210,145;    0,000
940,964;28471,623;  210,751;    0,000
941,517;28401,008;  213,065;    0,000
942,070;28325,123;  212,641;    0,000
942,623;28195,836;  209,458;    0,000
943,176;28079,750;  209,573;    0,000
943,728;27931,965;  208,258;    0,000
944,281;27773,537;  204,818;    0,000
944,834;27641,936;  205,989;    0,000
945,387;27531,508;  203,591;    0,000
945,939;27416,852;  201,319;    0,000
946,492;27302,123;  201,376;    0,000
947,044;27190,594;  200,701;    0,000
947,597;27105,750;  200,166;    0,000
948,149;27018,607;  200,548;    0,000
948,701;26952,408;  199,722;    0,000
949,254;26923,965;  202,352;    0,000
949,806;26879,150;  203,593;    0,000
950,358;26868,180;  205,059;    0,000
950,910;26802,193;  204,118;    0,000
951,462;26708,436;  202,639;    0,000
952,014;26640,836;  204,869;    0,000
952,566;26513,723;  202,698;    0,000
953,118;26343,865;  201,818;    0,000
953,670;26168,465;  199,145;    0,000
954,222;25983,664;  196,979;    0,000
954,774;25850,137;  196,936;    0,000
955,326;25721,580;  197,469;    0,000
955,877;25609,051;  196,769;    0,000
956,429;25531,137;  200,098;    0,000
956,981;25459,451;  200,093;    0,000
957,532;25373,064;  201,002;    0,000
958,084;25284,180;  201,536;    0,000
958,635;25166,051;  204,051;    0,000
959,187;25064,750;  206,759;    0,000
959,738;24927,336;  207,136;    0,000
960,289;24765,836;  207,635;    0,000
960,840;24597,250;  205,733;    0,000
961,392;24466,908;  209,435;    0,000
961,943;24294,723;  205,886;    0,000
962,494;24152,607;  204,815;    0,000
963,045;24022,494;  202,815;    0,000
963,596;23916,664;  202,466;    0,000
964,147;23823,494;  199,959;    0,000
964,698;23710,936;  200,381;    0,000
965,249;23588,379;  198,676;    0,000
965,800;23491,779;  198,108;    0,000
966,350;23386,922;  199,271;    0,000
966,901;23263,051;  197,022;    0,000
967,452;23120,207;  194,105;    0,000
968,002;22963,564;  194,813;    0,000
968,553;22825,465;  195,785;    0,000
969,103;22693,395;  194,262;    0,000
969,654;22541,051;  197,573;    0,000
970,204;22362,279;  193,316;    0,000
970,755;22200,836;  198,635;    0,000
971,305;22055,951;  196,475;    0,000
971,855;21923,852;  197,563;    0,000
972,405;21799,680;  198,476;    0,000
972,956;21658,736;  198,329;    0,000
973,506;21529,693;  195,188;    0,000
974,056;21431,180;  199,055;    0,000
974,606;21348,250;  196,771;    0,000
975,156;21263,279;  202,006;    0,000
975,706;21150,266;  200,901;    0,000
976,255;21024,322;  198,085;    0,000
976,805;20903,021;  194,115;    0,000
977,355;20791,322;  193,511;    0,000
977,905;20674,236;  190,249;    0,000
978,454;20521,793;  186,708;    0,000
979,004;20393,336;  186,169;    0,000
979,554;20286,865;  181,323;    0,000
980,103;20174,080;  183,672;    0,000
980,653;20047,908;  187,109;    0,000
981,202;19914,422;  189,989;    0,000
981,751;19796,094;  190,483;    0,000
982,301;19680,594;  192,135;    0,000
982,850;19550,395;  192,056;    0,000
983,399;19433,736;  195,139;    0,000
983,948;19313,408;  192,845;    0,000
984,497;19208,965;  192,408;    0,000
985,047;19128,650;  192,701;    0,000
985,596;19020,537;  190,479;    0,000
986,144;18948,309;  191,313;    0,000
986,693;18879,979;  190,216;    0,000
987,242;18809,107;  189,391;    0,000
987,791;18759,494;  187,878;    0,000
988,340;18686,309;  187,055;    0,000
988,888;18596,236;  185,666;    0,000
989,437;18511,322;  187,833;    0,000
989,986;18415,521;  187,305;    0,000
990,534;18287,664;  189,511;    0,000
991,083;18138,936;  188,602;    0,000
991,631;17997,607;  194,181;    0,000
992,180;17862,836;  192,253;    0,000
992,728;17753,865;  194,729;    0,000
993,276;17647,479;  194,772;    0,000
993,825;17518,766;  197,686;    0,000
994,373;17411,951;  195,889;    0,000
994,921;17301,723;  198,619;    0,000
995,469;17158,994;  194,948;    0,000
996,017;17019,395;  197,799;    0,000
996,565;16853,951;  195,386;    0,000
997,113;16708,664;  194,233;    0,000
997,661;16565,736;  195,701;    0,000
998,209;16409,809;  193,923;    0,000
998,757;16272,822;  194,433;    0,000
999,304;16142,551;  198,521;    0,000
999,852;16018,308;  198,102;    0,000
1000,400;15871,365;  200,345;    0,000
1000,947;15713,622;  202,122;    0,000
1001,495;15552,322;  199,105;    0,000
1002,042;15406,622;  201,096;    0,000
1002,590;15256,351;  201,802;    0,000
1003,137;15118,137;  201,246;    0,000
1003,684;14987,865;  205,853;    0,000
1004,232;14874,322;  205,866;    0,000
1004,779;14758,680;  204,868;    0,000
1005,326;14652,308;  204,949;    0,000
1005,873;14538,508;  205,993;    0,000
1006,420;14427,779;  208,981;    0,000
1006,967;14303,279;  203,853;    0,000
1007,514;14184,637;  200,048;    0,000
1008,061;14085,022;  198,576;    0,000
1008,608;13983,036;  200,879;    0,000
1009,155;13879,794;  203,512;    0,000
1009,702;13781,522;  200,036;    0,000
1010,248;13679,294;  197,241;    0,000
1010,795;13570,051;  199,646;    0,000
1011,342;13437,993;  203,321;    0,000
1011,888;13282,165;  207,002;    0,000
1012,435;13144,493;  205,935;    0,000
1012,981;13030,937;  205,785;    0,000
1013,528;12925,422;  210,649;    0,000
1014,074;12816,979;  211,203;    0,000
1014,620;12734,394;  214,266;    0,000
1015,166;12645,908;  213,948;    0,000
1015,713;12560,508;  213,669;    0,000
1016,259;12464,408;  212,485;    0,000
1016,805;12355,122;  208,745;    0,000
1017,351;12240,165;  208,248;    0,000
1017,897;12129,822;  205,171;    0,000
1018,443;12011,851;  201,905;    0,000
1018,989;11903,779;  198,913;    0,000
1019,535;11800,993;  195,983;    0,000
1020,080;11690,451;  196,713;    0,000
1020,626;11571,479;  199,155;    0,000
1021,172;11428,365;  196,982;    0,000
1021,717;11280,794;  196,409;    0,000
1022,263;11138,579;  199,171;    0,000
1022,809;11008,236;  199,549;    0,000
1023,354;10900,051;  204,042;    0,000
1023,900;10781,680;  200,485;    0,000
1024,445;10665,594;  197,875;    0,000
1024,990;10554,008;  198,491;    0,000
1025,536;10445,837;  199,736;    0,000
1026,081;10328,579;  196,598;    0,000
1026,626;10207,008;  195,008;    0,000
1027,171;10059,065;  190,711;    0,000
1027,716; 9935,536;  195,075;    0,000
1028,261; 9809,937;  194,342;    0,000
1028,806; 9695,622;  195,149;    0,000
1029,351; 9590,808;  194,293;    0,000
1029,896; 9495,222;  198,786;    0,000
1030,441; 9397,879;  198,806;    0,000
1030,985; 9307,794;  198,338;    0,000
1031,530; 9201,180;  196,731;    0,000
1032,075; 9097,437;  196,178;    0,000
1032,619; 9006,137;  200,828;    0,000
1033,164; 8893,894;  198,722;    0,000
1033,708; 8779,465;  196,279;    0,000
1034,253; 8660,508;  195,459;    0,000
1034,797; 8554,650;  196,476;    0,000
1035,341; 8468,837;  196,176;    0,000
1035,886; 8372,394;  198,575;    0,000
1036,430; 8274,650;  193,261;    0,000
1036,974; 8192,794;  199,781;    0,000
1037,518; 8103,736;  198,938;    0,000
1038,062; 8007,365;  199,306;    0,000
1038,606; 7906,951;  199,698;    0,000
1039,150; 7789,179;  197,595;    0,000
1039,694; 7681,565;  198,072;    0,000
1040,238; 7578,537;  197,332;    0,000
1040,782; 7467,537;  192,828;    0,000
1041,326; 7366,651;  194,282;    0,000
1041,869; 7282,322;  197,628;    0,000
1042,413; 7180,236;  198,241;    0,000
1042,957; 7082,651;  202,171;    0,000
1043,500; 6981,108;  200,459;    0,000
1044,044; 6872,108;  201,346;    0,000
1044,587; 6758,465;  201,756;    0,000
1045,130; 6652,293;  202,998;    0,000
1045,674; 6534,722;  200,305;    0,000
1046,217; 6433,551;  202,883;    0,000
1046,760; 6343,565;  201,263;    0,000
1047,304; 6266,008;  201,275;    0,000
1047,847; 6183,551;  202,502;    0,000
1048,390; 6115,636;  204,491;    0,000
1048,933; 6043,937;  203,545;    0,000
1049,476; 5983,379;  206,341;    0,000
1050,019; 5919,094;  205,258;    0,000
1050,562; 5852,451;  206,332;    0,000
1051,104; 5775,851;  208,866;    0,000
1051,647; 5710,779;  212,155;    0,000
1052,190; 5639,193;  215,566;    0,000
1052,732; 5560,651;  213,151;    0,000
1053,275; 5475,750;  209,453;    0,000
1053,818; 5396,394;  207,208;    0,000
1054,360; 5310,679;  207,191;    0,000
1054,902; 5235,494;  209,083;    0,000
1055,445; 5141,108;  203,278;    0,000
1055,987; 5061,651;  202,881;    0,000
1056,530; 4989,365;  204,958;    0,000
1057,072; 4927,765;  206,759;    0,000
1057,614; 4860,136;  203,476;    0,000
1058,156; 4811,722;  206,599;    0,000
1058,698; 4741,165;  203,358;    0,000
1059,240; 4686,094;  206,353;    0,000
1059,782; 4616,408;  203,668;    0,000
1060,324; 4542,994;  203,211;    0,000
1060,866; 4473,565;  205,362;    0,000
1061,408; 4405,522;  209,819;    0,000
1061,949; 4332,408;  209,153;    0,000
1062,491; 4273,808;  209,405;    0,000
1063,033; 4214,736;  209,529;    0,000
1063,574; 4165,979;  208,592;    0,000
1064,116; 4112,037;  206,232;    0,000
1064,657; 4054,008;  205,076;    0,000
1065,199; 4001,579;  207,033;    0,000
1065,740; 3942,836;  206,936;    0,000
1066,281; 3891,408;  209,778;    0,000
1066,823; 3833,437;  205,196;    0,000
1067,364; 3779,579;  208,968;    0,000
1067,905; 3729,694;  213,685;    0,000
1068,446; 3680,879;  212,301;    0,000
1068,987; 3631,293;  210,768;    0,000
1069,528; 3583,836;  209,179;    0,000
1070,069; 3541,308;  211,116;    0,000
1070,610; 3499,779;  212,905;    0,000
1071,151; 3458,194;  208,663;    0,000
1071,692; 3421,437;  206,752;    0,000
1072,232; 3381,094;  205,788;    0,000
1072,773; 3339,937;  204,421;    0,000
1073,314; 3294,408;  203,598;    0,000
1073,854; 3247,194;  200,458;    0,000
1074,395; 3203,165;  200,966;    0,000
1074,935; 3157,022;  202,371;    0,000
1075,476; 3106,865;  200,971;    0,000
1076,016; 3068,322;  202,911;    0,000
1076,556; 3030,079;  203,479;    0,000
1077,097; 2998,408;  205,328;    0,000
1077,637; 2965,065;  205,439;    0,000
1078,177; 2930,122;  203,913;    0,000
1078,717; 2899,293;  204,766;    0,000
1079,257; 2872,636;  206,941;    0,000
1079,797; 2844,065;  210,331;    0,000
1080,337; 2814,708;  210,848;    0,000
1080,877; 2782,779;  208,226;    0,000
1081,417; 2745,979;  207,406;    0,000
1081,956; 2709,208;  207,436;    0,000
1082,496; 2669,522;  205,606;    0,000
1083,036; 2639,108;  204,488;    0,000
1083,575; 2599,708;  200,176;    0,000
1084,115; 2566,008;  197,792;    0,000
1084,655; 2539,751;  199,815;    0,000
1085,194; 2520,694;  201,346;    0,000
1085,733; 2503,908;  203,708;    0,000
1086,273; 2485,036;  205,421;    0,000
1086,812; 2468,708;  209,239;    0,000
1087,351; 2456,479;  211,091;    0,000
1087,890; 2434,679;  210,099;    0,000
1088,429; 2411,522;  210,881;    0,000
1088,969; 2374,551;  208,909;    0,000
1089,507; 2345,236;  209,501;    0,000
1090,047; 2316,051;  209,315;    0,000
1090,585; 2276,265;  203,596;    0,000
1091,124; 2240,894;  203,602;    0,000
1091,663; 2211,751;  206,195;    0,000
1092,202; 2180,536;  207,848;    0,000
1092,740; 2158,836;  208,743;    0,000
1093,279; 2128,379;  206,413;    0,000
1093,818; 2101,679;  205,158;    0,000
1094,356; 2077,608;  208,232;    0,000
1094,895; 2049,708;  206,805;    0,000
1095,433; 2022,622;  204,838;    0,000
1095,971; 1993,351;  203,221;    0,000
1096,510; 1964,708;  201,822;    0,000
1097,048; 1938,479;  200,842;    0,000
1097,586; 1912,765;  201,033;    0,000
1098,124; 1888,436;  200,926;    0,000
1098,662; 1866,965;  203,608;    0,000
1099,200; 1841,494;  204,806;    0,000
1099,738; 1820,394;  204,136;    0,000
1100,276; 1802,594;  208,125;    0,000

