0,60A
Integration time [ms]:   1,000
Averaging Nr. [scans]: 10
Smoothing Nr. [pixels]: 3
Data measured with spectrometer [name]: 7516255SP
Wave   ;Sample   ;Dark     ;Reference
[nm]   ;[counts] ;[counts] ;[counts] 

177,229;  240,881;  248,380;    0,000
177,829;  239,942;  245,964;    0,000
178,430;  245,787;  248,373;    0,000
179,030;  243,920;  250,642;    0,000
179,630;  247,039;  253,151;    0,000
180,230;  245,338;  249,422;    0,000
180,830;  248,995;  253,310;    0,000
181,430;  246,497;  249,852;    0,000
182,030;  252,623;  255,348;    0,000
182,630;  249,450;  252,722;    0,000
183,230;  253,481;  256,133;    0,000
183,830;  250,586;  255,035;    0,000
184,430;  254,378;  260,918;    0,000
185,030;  253,936;  265,794;    0,000
185,630;  253,952;  273,281;    0,000
186,229;  250,803;  276,549;    0,000
186,829;  250,309;  284,113;    0,000
187,429;  244,023;  284,655;    0,000
188,029;  243,037;  293,060;    0,000
188,628;  243,663;  296,144;    0,000
189,228;  243,806;  298,286;    0,000
189,828;  239,690;  301,049;    0,000
190,428;  237,625;  304,825;    0,000
191,027;  237,253;  307,658;    0,000
191,627;  240,471;  310,938;    0,000
192,227;  237,264;  308,449;    0,000
192,826;  237,296;  309,456;    0,000
193,426;  234,955;  305,352;    0,000
194,025;  241,629;  304,269;    0,000
194,625;  240,951;  297,290;    0,000
195,224;  239,813;  291,007;    0,000
195,824;  234,712;  284,067;    0,000
196,423;  238,656;  284,210;    0,000
197,023;  228,661;  273,975;    0,000
197,622;  234,374;  277,388;    0,000
198,221;  228,890;  271,407;    0,000
198,821;  228,477;  270,071;    0,000
199,420;  227,017;  267,807;    0,000
200,019;  227,349;  265,581;    0,000
200,619;  229,244;  266,708;    0,000
201,218;  232,300;  269,307;    0,000
201,817;  225,788;  262,689;    0,000
202,416;  233,561;  269,320;    0,000
203,016;  231,782;  267,603;    0,000
203,615;  233,137;  269,316;    0,000
204,214;  232,568;  268,581;    0,000
204,813;  232,084;  269,417;    0,000
205,412;  234,164;  270,504;    0,000
206,011;  234,477;  271,061;    0,000
206,610;  224,749;  262,624;    0,000
207,209;  223,390;  260,034;    0,000
207,808;  225,713;  263,300;    0,000
208,407;  225,504;  265,099;    0,000
209,006;  220,355;  259,918;    0,000
209,605;  224,505;  263,852;    0,000
210,204;  222,306;  261,611;    0,000
210,803;  225,563;  263,763;    0,000
211,402;  227,338;  267,671;    0,000
212,001;  226,059;  265,171;    0,000
212,599;  230,391;  265,613;    0,000
213,198;  229,510;  264,736;    0,000
213,797;  223,223;  258,824;    0,000
214,396;  226,880;  262,628;    0,000
214,994;  223,869;  259,891;    0,000
215,593;  223,720;  258,874;    0,000
216,192;  220,875;  256,996;    0,000
216,790;  219,215;  258,235;    0,000
217,389;  224,081;  262,211;    0,000
217,988;  228,740;  265,618;    0,000
218,586;  224,961;  261,907;    0,000
219,185;  225,719;  262,217;    0,000
219,783;  223,637;  261,125;    0,000
220,382;  227,282;  263,945;    0,000
220,980;  230,541;  265,514;    0,000
221,579;  231,428;  265,657;    0,000
222,177;  229,309;  265,160;    0,000
222,776;  229,618;  265,216;    0,000
223,374;  232,373;  267,622;    0,000
223,972;  235,673;  268,758;    0,000
224,571;  232,887;  266,607;    0,000
225,169;  231,300;  266,183;    0,000
225,767;  228,494;  263,128;    0,000
226,366;  230,449;  264,716;    0,000
226,964;  230,980;  265,381;    0,000
227,562;  230,218;  264,573;    0,000
228,160;  230,291;  266,307;    0,000
228,758;  227,715;  263,099;    0,000
229,356;  228,011;  264,018;    0,000
229,955;  226,752;  263,643;    0,000
230,553;  226,335;  262,812;    0,000
231,151;  224,646;  260,474;    0,000
231,749;  224,237;  261,002;    0,000
232,347;  225,487;  261,471;    0,000
232,945;  224,494;  263,359;    0,000
233,543;  225,617;  263,245;    0,000
234,141;  222,678;  259,740;    0,000
234,739;  224,893;  260,786;    0,000
235,337;  230,120;  266,127;    0,000
235,934;  233,411;  268,009;    0,000
236,532;  236,075;  269,234;    0,000
237,130;  238,704;  269,912;    0,000
237,728;  239,588;  271,060;    0,000
238,326;  246,337;  277,127;    0,000
238,923;  240,629;  273,391;    0,000
239,521;  235,528;  270,594;    0,000
240,119;  227,950;  264,347;    0,000
240,716;  226,364;  263,320;    0,000
241,314;  224,812;  260,868;    0,000
241,912;  219,358;  255,973;    0,000
242,509;  224,875;  260,687;    0,000
243,107;  229,706;  265,030;    0,000
243,704;  229,561;  263,643;    0,000
244,302;  237,998;  270,353;    0,000
244,899;  235,545;  268,025;    0,000
245,497;  240,616;  272,907;    0,000
246,094;  236,793;  270,101;    0,000
246,692;  229,125;  264,182;    0,000
247,289;  222,189;  258,082;    0,000
247,887;  225,887;  261,108;    0,000
248,484;  223,808;  261,014;    0,000
249,081;  219,984;  256,929;    0,000
249,679;  217,770;  254,140;    0,000
250,276;  222,746;  257,478;    0,000
250,873;  223,311;  257,489;    0,000
251,470;  233,563;  264,509;    0,000
252,067;  227,602;  257,864;    0,000
252,665;  225,548;  256,501;    0,000
253,262;  229,667;  261,268;    0,000
253,859;  232,247;  264,566;    0,000
254,456;  234,353;  266,818;    0,000
255,053;  232,272;  264,252;    0,000
255,650;  229,735;  264,688;    0,000
256,247;  231,152;  266,436;    0,000
256,844;  227,805;  262,412;    0,000
257,441;  232,627;  265,346;    0,000
258,038;  222,797;  256,555;    0,000
258,635;  226,749;  259,146;    0,000
259,232;  225,310;  258,136;    0,000
259,829;  225,737;  258,534;    0,000
260,426;  228,033;  260,226;    0,000
261,022;  233,077;  265,937;    0,000
261,619;  229,141;  263,246;    0,000
262,216;  234,357;  267,582;    0,000
262,813;  228,684;  263,416;    0,000
263,409;  233,145;  266,190;    0,000
264,006;  231,110;  263,910;    0,000
264,603;  234,466;  266,458;    0,000
265,199;  235,307;  266,212;    0,000
265,796;  232,770;  262,638;    0,000
266,393;  240,943;  270,051;    0,000
266,989;  241,981;  268,950;    0,000
267,586;  239,715;  269,445;    0,000
268,182;  241,467;  271,811;    0,000
268,779;  242,726;  271,297;    0,000
269,375;  245,123;  272,459;    0,000
269,971;  241,213;  269,812;    0,000
270,568;  237,507;  267,102;    0,000
271,164;  233,827;  265,667;    0,000
271,761;  236,998;  266,079;    0,000
272,357;  233,886;  262,751;    0,000
272,953;  231,145;  262,804;    0,000
273,550;  230,447;  263,553;    0,000
274,146;  235,138;  268,732;    0,000
274,742;  234,716;  267,040;    0,000
275,338;  234,928;  266,953;    0,000
275,934;  237,499;  269,701;    0,000
276,531;  234,874;  268,661;    0,000
277,127;  232,435;  266,833;    0,000
277,723;  228,965;  263,505;    0,000
278,319;  226,126;  260,610;    0,000
278,915;  230,421;  265,702;    0,000
279,511;  225,595;  261,135;    0,000
280,107;  223,814;  261,223;    0,000
280,703;  224,867;  261,557;    0,000
281,299;  223,859;  260,275;    0,000
281,895;  224,129;  260,898;    0,000
282,491;  224,039;  261,025;    0,000
283,086;  222,101;  260,856;    0,000
283,682;  225,106;  265,149;    0,000
284,278;  224,397;  263,061;    0,000
284,874;  223,122;  262,221;    0,000
285,470;  229,143;  268,220;    0,000
286,065;  229,192;  268,543;    0,000
286,661;  233,386;  271,852;    0,000
287,257;  229,336;  266,128;    0,000
287,852;  233,033;  269,122;    0,000
288,448;  231,918;  268,736;    0,000
289,044;  230,492;  267,845;    0,000
289,639;  226,876;  264,108;    0,000
290,235;  224,778;  261,245;    0,000
290,830;  221,093;  258,763;    0,000
291,426;  219,267;  256,138;    0,000
292,021;  218,415;  256,966;    0,000
292,617;  213,800;  252,863;    0,000
293,212;  215,258;  253,676;    0,000
293,807;  213,933;  251,590;    0,000
294,403;  219,579;  257,176;    0,000
294,998;  222,008;  259,197;    0,000
295,593;  220,239;  259,471;    0,000
296,189;  219,455;  257,496;    0,000
296,784;  221,054;  257,071;    0,000
297,379;  222,192;  258,813;    0,000
297,974;  224,424;  260,428;    0,000
298,570;  214,916;  252,022;    0,000
299,165;  212,753;  250,170;    0,000
299,760;  215,710;  250,522;    0,000
300,355;  218,811;  254,216;    0,000
300,950;  221,306;  256,042;    0,000
301,545;  223,965;  256,334;    0,000
302,140;  222,639;  255,723;    0,000
302,735;  224,264;  257,293;    0,000
303,330;  227,387;  259,781;    0,000
303,925;  225,459;  258,770;    0,000
304,520;  225,751;  258,857;    0,000
305,115;  224,826;  260,265;    0,000
305,709;  222,095;  258,280;    0,000
306,304;  220,428;  256,457;    0,000
306,899;  220,431;  255,726;    0,000
307,494;  221,036;  257,195;    0,000
308,089;  217,699;  253,993;    0,000
308,683;  217,826;  252,905;    0,000
309,278;  215,295;  249,781;    0,000
309,873;  218,172;  253,016;    0,000
310,467;  221,304;  257,138;    0,000
311,062;  224,126;  259,829;    0,000
311,656;  222,437;  256,316;    0,000
312,251;  228,560;  262,499;    0,000
312,846;  226,444;  260,375;    0,000
313,440;  229,843;  265,566;    0,000
314,035;  227,695;  262,472;    0,000
314,629;  230,601;  264,036;    0,000
315,223;  232,983;  266,656;    0,000
315,818;  234,405;  268,905;    0,000
316,412;  231,560;  265,768;    0,000
317,006;  233,293;  266,867;    0,000
317,601;  230,386;  264,141;    0,000
318,195;  234,010;  268,583;    0,000
318,789;  231,580;  267,468;    0,000
319,384;  232,251;  267,626;    0,000
319,978;  227,644;  264,087;    0,000
320,572;  230,612;  266,422;    0,000
321,166;  233,174;  270,525;    0,000
321,760;  235,602;  271,064;    0,000
322,354;  232,825;  268,470;    0,000
322,948;  230,273;  266,232;    0,000
323,542;  226,429;  262,171;    0,000
324,136;  228,660;  263,390;    0,000
324,730;  226,615;  263,056;    0,000
325,324;  223,588;  258,546;    0,000
325,918;  222,454;  257,352;    0,000
326,512;  223,722;  257,260;    0,000
327,106;  226,006;  260,163;    0,000
327,700;  223,812;  258,710;    0,000
328,294;  226,757;  262,356;    0,000
328,887;  225,441;  260,123;    0,000
329,481;  225,027;  260,701;    0,000
330,075;  225,214;  260,312;    0,000
330,669;  222,770;  256,986;    0,000
331,262;  218,765;  252,608;    0,000
331,856;  219,500;  252,427;    0,000
332,449;  216,871;  249,961;    0,000
333,043;  221,393;  253,043;    0,000
333,637;  217,862;  248,985;    0,000
334,230;  217,087;  247,576;    0,000
334,824;  218,690;  248,912;    0,000
335,417;  221,616;  249,551;    0,000
336,011;  221,744;  249,473;    0,000
336,604;  216,613;  243,618;    0,000
337,197;  210,846;  239,138;    0,000
337,791;  211,588;  241,150;    0,000
338,384;  209,181;  240,818;    0,000
338,977;  206,657;  239,483;    0,000
339,571;  201,371;  236,886;    0,000
340,164;  199,340;  235,665;    0,000
340,757;  206,662;  242,840;    0,000
341,350;  207,570;  242,880;    0,000
341,943;  206,252;  240,909;    0,000
342,537;  204,199;  238,109;    0,000
343,130;  202,032;  235,497;    0,000
343,723;  206,543;  237,841;    0,000
344,316;  206,321;  235,469;    0,000
344,909;  204,890;  233,252;    0,000
345,502;  209,263;  237,004;    0,000
346,095;  211,259;  238,174;    0,000
346,688;  214,467;  242,384;    0,000
347,281;  216,578;  241,916;    0,000
347,874;  216,364;  241,894;    0,000
348,466;  221,922;  249,562;    0,000
349,059;  222,914;  251,577;    0,000
349,652;  216,978;  246,126;    0,000
350,245;  216,328;  245,978;    0,000
350,838;  214,332;  244,679;    0,000
351,430;  215,718;  248,030;    0,000
352,023;  211,458;  244,793;    0,000
352,616;  206,492;  239,239;    0,000
353,208;  205,430;  239,597;    0,000
353,801;  210,803;  244,491;    0,000
354,393;  213,674;  245,289;    0,000
354,986;  216,328;  246,962;    0,000
355,578;  216,861;  246,807;    0,000
356,171;  222,271;  251,427;    0,000
356,763;  227,500;  255,434;    0,000
357,356;  227,665;  253,357;    0,000
357,948;  224,896;  250,493;    0,000
358,541;  224,933;  251,416;    0,000
359,133;  224,631;  251,927;    0,000
359,725;  223,256;  249,585;    0,000
360,318;  219,257;  246,151;    0,000
360,910;  219,728;  244,801;    0,000
361,502;  219,159;  244,266;    0,000
362,094;  219,416;  244,408;    0,000
362,686;  212,724;  239,185;    0,000
363,279;  210,172;  236,351;    0,000
363,871;  215,318;  241,677;    0,000
364,463;  218,346;  243,320;    0,000
365,055;  216,922;  241,634;    0,000
365,647;  216,236;  242,106;    0,000
366,239;  213,268;  240,313;    0,000
366,831;  219,922;  244,023;    0,000
367,423;  222,002;  246,456;    0,000
368,015;  217,882;  243,213;    0,000
368,607;  217,948;  243,993;    0,000
369,198;  219,231;  246,042;    0,000
369,790;  218,093;  244,907;    0,000
370,382;  220,394;  245,851;    0,000
370,974;  217,328;  243,277;    0,000
371,565;  217,751;  242,518;    0,000
372,157;  215,415;  240,254;    0,000
372,749;  214,690;  240,618;    0,000
373,341;  207,468;  234,984;    0,000
373,932;  212,374;  241,550;    0,000
374,524;  215,845;  243,270;    0,000
375,115;  215,416;  244,316;    0,000
375,707;  219,532;  247,594;    0,000
376,298;  224,144;  251,831;    0,000
376,890;  224,735;  253,240;    0,000
377,481;  230,169;  256,774;    0,000
378,073;  225,054;  250,168;    0,000
378,664;  224,166;  251,531;    0,000
379,255;  226,186;  252,147;    0,000
379,847;  225,305;  250,619;    0,000
380,438;  223,816;  247,796;    0,000
381,029;  222,906;  246,816;    0,000
381,620;  220,504;  244,288;    0,000
382,212;  221,057;  245,604;    0,000
382,803;  219,608;  243,854;    0,000
383,394;  219,688;  243,309;    0,000
383,985;  214,177;  240,939;    0,000
384,576;  215,740;  244,389;    0,000
385,167;  213,426;  242,575;    0,000
385,758;  214,433;  245,111;    0,000
386,349;  212,808;  243,712;    0,000
386,940;  214,863;  247,607;    0,000
387,531;  216,029;  252,439;    0,000
388,122;  219,006;  256,493;    0,000
388,713;  215,409;  252,911;    0,000
389,304;  216,570;  255,892;    0,000
389,895;  215,637;  257,693;    0,000
390,485;  222,742;  268,292;    0,000
391,076;  217,525;  265,205;    0,000
391,667;  220,462;  266,486;    0,000
392,258;  218,911;  265,736;    0,000
392,848;  222,597;  269,066;    0,000
393,439;  217,528;  266,276;    0,000
394,030;  216,494;  264,516;    0,000
394,620;  214,519;  260,640;    0,000
395,211;  216,622;  261,828;    0,000
395,801;  214,290;  259,375;    0,000
396,392;  213,700;  257,600;    0,000
396,982;  211,709;  255,339;    0,000
397,573;  219,327;  260,162;    0,000
398,163;  224,059;  261,856;    0,000
398,753;  218,737;  256,216;    0,000
399,344;  217,716;  255,062;    0,000
399,934;  212,545;  251,800;    0,000
400,524;  215,752;  254,322;    0,000
401,115;  216,182;  255,700;    0,000
401,705;  212,207;  250,461;    0,000
402,295;  209,346;  250,508;    0,000
402,885;  209,601;  250,221;    0,000
403,475;  209,912;  250,185;    0,000
404,065;  213,358;  251,519;    0,000
404,655;  210,957;  249,740;    0,000
405,245;  208,574;  246,981;    0,000
405,835;  213,820;  253,258;    0,000
406,425;  216,948;  255,007;    0,000
407,015;  218,792;  256,960;    0,000
407,605;  222,368;  259,085;    0,000
408,195;  227,367;  262,687;    0,000
408,785;  228,589;  262,663;    0,000
409,375;  231,231;  265,668;    0,000
409,965;  232,454;  266,054;    0,000
410,554;  233,838;  266,891;    0,000
411,144;  237,965;  270,053;    0,000
411,734;  239,358;  270,397;    0,000
412,324;  234,266;  268,015;    0,000
412,913;  236,138;  268,299;    0,000
413,503;  239,267;  271,981;    0,000
414,092;  238,247;  272,467;    0,000
414,682;  239,259;  271,922;    0,000
415,271;  235,850;  268,236;    0,000
415,861;  232,807;  265,582;    0,000
416,450;  237,186;  268,319;    0,000
417,040;  236,726;  268,633;    0,000
417,629;  236,163;  266,235;    0,000
418,219;  236,037;  262,710;    0,000
418,808;  233,795;  261,422;    0,000
419,397;  232,710;  260,415;    0,000
419,986;  239,631;  265,594;    0,000
420,576;  240,188;  267,100;    0,000
421,165;  242,627;  268,885;    0,000
421,754;  239,901;  264,798;    0,000
422,343;  241,340;  267,904;    0,000
422,932;  239,201;  264,405;    0,000
423,521;  242,340;  265,502;    0,000
424,111;  236,416;  258,886;    0,000
424,700;  239,121;  259,019;    0,000
425,289;  237,506;  256,699;    0,000
425,878;  239,868;  259,392;    0,000
426,466;  236,303;  256,014;    0,000
427,055;  238,734;  258,622;    0,000
427,644;  241,689;  259,672;    0,000
428,233;  245,589;  264,083;    0,000
428,822;  241,571;  260,465;    0,000
429,411;  242,912;  260,750;    0,000
429,999;  245,891;  262,128;    0,000
430,588;  246,096;  260,544;    0,000
431,177;  247,095;  259,795;    0,000
431,766;  245,901;  260,753;    0,000
432,354;  245,624;  260,748;    0,000
432,943;  243,051;  258,111;    0,000
433,531;  242,006;  257,433;    0,000
434,120;  239,822;  254,996;    0,000
434,708;  242,102;  255,948;    0,000
435,297;  243,299;  258,099;    0,000
435,885;  238,749;  253,315;    0,000
436,474;  236,407;  248,315;    0,000
437,062;  234,953;  246,455;    0,000
437,650;  235,168;  246,416;    0,000
438,239;  232,169;  244,101;    0,000
438,827;  230,399;  241,945;    0,000
439,415;  225,913;  237,557;    0,000
440,003;  232,182;  241,542;    0,000
440,592;  235,124;  244,478;    0,000
441,180;  239,979;  248,450;    0,000
441,768;  239,132;  245,871;    0,000
442,356;  244,265;  249,567;    0,000
442,944;  248,281;  252,979;    0,000
443,532;  252,928;  255,930;    0,000
444,120;  245,784;  249,975;    0,000
444,708;  244,352;  249,633;    0,000
445,296;  241,617;  245,660;    0,000
445,884;  245,609;  249,389;    0,000
446,472;  243,891;  247,887;    0,000
447,060;  242,585;  245,555;    0,000
447,647;  243,839;  244,988;    0,000
448,235;  251,648;  250,613;    0,000
448,823;  250,547;  249,174;    0,000
449,411;  254,692;  252,970;    0,000
449,998;  251,082;  248,784;    0,000
450,586;  253,002;  247,208;    0,000
451,173;  258,280;  250,824;    0,000
451,761;  258,560;  250,938;    0,000
452,349;  260,879;  250,993;    0,000
452,936;  267,330;  254,525;    0,000
453,524;  269,052;  252,976;    0,000
454,111;  273,361;  255,591;    0,000
454,698;  277,501;  258,294;    0,000
455,286;  281,491;  260,011;    0,000
455,873;  282,316;  261,239;    0,000
456,461;  284,894;  262,133;    0,000
457,048;  282,027;  258,698;    0,000
457,635;  283,699;  262,088;    0,000
458,222;  286,087;  263,287;    0,000
458,810;  289,207;  266,463;    0,000
459,397;  281,558;  257,990;    0,000
459,984;  288,217;  260,569;    0,000
460,571;  283,246;  256,247;    0,000
461,158;  282,134;  253,638;    0,000
461,745;  282,734;  251,734;    0,000
462,332;  283,308;  250,932;    0,000
462,919;  281,996;  248,508;    0,000
463,506;  292,213;  258,477;    0,000
464,093;  289,846;  255,464;    0,000
464,680;  294,680;  257,617;    0,000
465,267;  302,897;  263,426;    0,000
465,853;  301,679;  260,970;    0,000
466,440;  304,464;  262,505;    0,000
467,027;  306,712;  263,808;    0,000
467,614;  304,738;  259,329;    0,000
468,200;  311,604;  263,092;    0,000
468,787;  312,941;  261,737;    0,000
469,374;  313,338;  260,891;    0,000
469,960;  320,362;  263,888;    0,000
470,547;  321,272;  262,031;    0,000
471,133;  318,739;  257,284;    0,000
471,720;  320,984;  256,917;    0,000
472,306;  324,776;  257,644;    0,000
472,893;  324,761;  258,089;    0,000
473,479;  333,099;  261,826;    0,000
474,065;  333,223;  260,896;    0,000
474,652;  337,525;  262,724;    0,000
475,238;  342,865;  265,230;    0,000
475,824;  341,851;  260,808;    0,000
476,410;  344,058;  262,634;    0,000
476,997;  352,557;  264,502;    0,000
477,583;  351,789;  260,916;    0,000
478,169;  356,157;  261,974;    0,000
478,755;  360,827;  262,301;    0,000
479,341;  361,322;  258,638;    0,000
479,927;  364,025;  259,911;    0,000
480,513;  366,393;  255,849;    0,000
481,099;  365,294;  253,465;    0,000
481,685;  368,382;  253,179;    0,000
482,271;  373,104;  253,007;    0,000
482,857;  369,446;  246,490;    0,000
483,443;  378,537;  252,079;    0,000
484,028;  376,085;  247,732;    0,000
484,614;  375,490;  247,765;    0,000
485,200;  372,903;  243,439;    0,000
485,786;  373,144;  240,957;    0,000
486,371;  377,350;  242,400;    0,000
486,957;  382,234;  246,578;    0,000
487,543;  383,610;  246,197;    0,000
488,128;  392,542;  250,206;    0,000
488,714;  399,466;  251,568;    0,000
489,299;  410,757;  259,992;    0,000
489,885;  412,977;  258,537;    0,000
490,470;  415,589;  257,390;    0,000
491,055;  417,939;  254,111;    0,000
491,641;  422,894;  255,055;    0,000
492,226;  431,531;  260,389;    0,000
492,811;  426,587;  254,750;    0,000
493,397;  430,921;  254,919;    0,000
493,982;  436,511;  256,648;    0,000
494,567;  436,501;  256,162;    0,000
495,152;  442,548;  258,532;    0,000
495,738;  440,293;  254,086;    0,000
496,323;  441,517;  251,843;    0,000
496,908;  447,370;  254,065;    0,000
497,493;  443,991;  250,812;    0,000
498,078;  447,507;  251,709;    0,000
498,663;  448,503;  250,125;    0,000
499,248;  446,647;  248,506;    0,000
499,833;  450,249;  247,788;    0,000
500,417;  447,948;  242,695;    0,000
501,002;  451,707;  242,193;    0,000
501,587;  452,339;  238,914;    0,000
502,172;  455,495;  239,588;    0,000
502,757;  457,174;  238,194;    0,000
503,341;  463,758;  241,729;    0,000
503,926;  464,316;  240,716;    0,000
504,511;  466,486;  240,903;    0,000
505,095;  475,807;  248,322;    0,000
505,680;  480,048;  250,122;    0,000
506,264;  488,047;  257,819;    0,000
506,849;  482,897;  251,368;    0,000
507,433;  489,851;  253,752;    0,000
508,018;  495,887;  257,965;    0,000
508,602;  500,601;  261,651;    0,000
509,186;  501,601;  259,215;    0,000
509,771;  501,564;  256,574;    0,000
510,355;  500,876;  252,093;    0,000
510,939;  507,601;  255,325;    0,000
511,524;  509,282;  254,618;    0,000
512,108;  509,774;  252,347;    0,000
512,692;  513,359;  253,454;    0,000
513,276;  508,798;  246,569;    0,000
513,860;  516,758;  251,344;    0,000
514,444;  514,936;  245,930;    0,000
515,028;  521,151;  250,616;    0,000
515,612;  517,977;  245,847;    0,000
516,196;  522,487;  246,873;    0,000
516,780;  526,390;  247,062;    0,000
517,364;  529,203;  249,719;    0,000
517,948;  534,043;  250,687;    0,000
518,532;  540,169;  254,527;    0,000
519,115;  541,489;  251,718;    0,000
519,699;  553,906;  259,501;    0,000
520,283;  557,192;  261,003;    0,000
520,867;  559,695;  260,760;    0,000
521,450;  564,473;  261,295;    0,000
522,034;  568,412;  261,988;    0,000
522,617;  568,330;  262,194;    0,000
523,201;  574,047;  265,138;    0,000
523,784;  569,920;  258,227;    0,000
524,368;  572,840;  257,385;    0,000
524,951;  579,611;  258,779;    0,000
525,535;  584,156;  259,987;    0,000
526,118;  587,495;  259,487;    0,000
526,702;  589,564;  257,499;    0,000
527,285;  598,310;  261,842;    0,000
527,868;  605,559;  262,851;    0,000
528,451;  610,890;  263,683;    0,000
529,035;  614,446;  262,356;    0,000
529,618;  618,754;  261,786;    0,000
530,201;  623,222;  262,815;    0,000
530,784;  630,270;  263,076;    0,000
531,367;  637,407;  263,668;    0,000
531,950;  642,357;  263,956;    0,000
532,533;  648,779;  266,343;    0,000
533,116;  657,306;  272,031;    0,000
533,699;  660,090;  270,042;    0,000
534,282;  660,363;  265,975;    0,000
534,865;  664,166;  265,056;    0,000
535,448;  661,652;  259,457;    0,000
536,030;  666,607;  260,227;    0,000
536,613;  670,261;  258,261;    0,000
537,196;  669,772;  250,764;    0,000
537,778;  677,603;  253,173;    0,000
538,361;  689,256;  255,563;    0,000
538,944;  698,015;  257,692;    0,000
539,526;  712,459;  264,423;    0,000
540,109;  721,905;  267,570;    0,000
540,691;  731,332;  267,620;    0,000
541,274;  743,413;  271,078;    0,000
541,856;  753,857;  271,170;    0,000
542,439;  767,189;  275,525;    0,000
543,021;  773,589;  273,547;    0,000
543,603;  781,840;  272,220;    0,000
544,186;  790,017;  268,326;    0,000
544,768;  802,589;  270,325;    0,000
545,350;  810,155;  269,367;    0,000
545,932;  814,400;  268,234;    0,000
546,515;  819,712;  265,942;    0,000
547,097;  830,864;  265,698;    0,000
547,679;  838,116;  267,069;    0,000
548,261;  848,935;  271,534;    0,000
548,843;  852,553;  269,930;    0,000
549,425;  862,595;  269,030;    0,000
550,007;  878,596;  271,009;    0,000
550,589;  889,325;  270,362;    0,000
551,171;  899,195;  270,839;    0,000
551,752;  908,096;  265,105;    0,000
552,334;  913,619;  260,576;    0,000
552,916;  928,312;  261,238;    0,000
553,498;  936,856;  260,454;    0,000
554,079;  942,725;  256,369;    0,000
554,661;  952,938;  255,012;    0,000
555,243;  964,799;  255,472;    0,000
555,824;  977,506;  255,996;    0,000
556,406;  991,043;  254,216;    0,000
556,987; 1001,246;  251,841;    0,000
557,569; 1014,785;  251,488;    0,000
558,150; 1033,082;  256,323;    0,000
558,732; 1045,740;  259,544;    0,000
559,313; 1059,497;  259,289;    0,000
559,894; 1070,290;  257,912;    0,000
560,476; 1083,992;  258,311;    0,000
561,057; 1096,616;  258,022;    0,000
561,638; 1115,716;  261,086;    0,000
562,219; 1123,785;  254,565;    0,000
562,801; 1137,207;  252,044;    0,000
563,382; 1154,102;  252,728;    0,000
563,963; 1174,222;  255,558;    0,000
564,544; 1186,339;  254,343;    0,000
565,125; 1198,689;  251,563;    0,000
565,706; 1212,199;  252,219;    0,000
566,287; 1230,123;  253,565;    0,000
566,868; 1242,866;  250,874;    0,000
567,449; 1256,426;  251,190;    0,000
568,030; 1268,655;  248,971;    0,000
568,610; 1290,219;  251,542;    0,000
569,191; 1311,856;  254,743;    0,000
569,772; 1324,917;  252,371;    0,000
570,353; 1340,017;  250,584;    0,000
570,933; 1364,549;  251,704;    0,000
571,514; 1379,256;  248,239;    0,000
572,094; 1394,924;  247,208;    0,000
572,675; 1410,275;  244,184;    0,000
573,256; 1430,382;  246,226;    0,000
573,836; 1450,156;  243,062;    0,000
574,417; 1473,681;  245,329;    0,000
574,997; 1500,138;  250,444;    0,000
575,577; 1524,406;  252,240;    0,000
576,158; 1551,618;  255,950;    0,000
576,738; 1577,776;  261,059;    0,000
577,318; 1602,873;  260,621;    0,000
577,898; 1629,837;  264,233;    0,000
578,479; 1653,809;  264,338;    0,000
579,059; 1667,783;  259,650;    0,000
579,639; 1697,394;  260,547;    0,000
580,219; 1719,770;  258,823;    0,000
580,799; 1739,301;  254,051;    0,000
581,379; 1757,579;  249,415;    0,000
581,959; 1780,772;  247,527;    0,000
582,539; 1806,020;  249,237;    0,000
583,119; 1826,880;  247,717;    0,000
583,699; 1843,207;  247,045;    0,000
584,279; 1865,624;  245,597;    0,000
584,859; 1892,610;  250,336;    0,000
585,438; 1917,830;  251,422;    0,000
586,018; 1938,819;  251,537;    0,000
586,598; 1959,494;  250,061;    0,000
587,177; 1985,142;  250,660;    0,000
587,757; 2008,875;  251,752;    0,000
588,337; 2033,091;  253,612;    0,000
588,916; 2057,981;  252,747;    0,000
589,496; 2077,532;  251,183;    0,000
590,075; 2103,561;  254,184;    0,000
590,654; 2121,404;  253,285;    0,000
591,234; 2141,534;  253,104;    0,000
591,813; 2163,113;  253,109;    0,000
592,393; 2184,919;  250,467;    0,000
592,972; 2202,220;  248,901;    0,000
593,551; 2231,959;  253,295;    0,000
594,130; 2254,877;  252,929;    0,000
594,710; 2279,624;  256,140;    0,000
595,289; 2308,635;  256,350;    0,000
595,868; 2328,544;  254,909;    0,000
596,447; 2353,255;  257,732;    0,000
597,026; 2378,785;  259,218;    0,000
597,605; 2394,790;  259,170;    0,000
598,184; 2408,920;  253,643;    0,000
598,763; 2431,887;  253,969;    0,000
599,342; 2453,229;  254,811;    0,000
599,920; 2475,491;  254,227;    0,000
600,499; 2495,276;  257,179;    0,000
601,078; 2506,301;  254,611;    0,000
601,657; 2522,426;  254,015;    0,000
602,236; 2543,789;  258,225;    0,000
602,814; 2556,959;  255,697;    0,000
603,393; 2566,761;  254,089;    0,000
603,971; 2585,617;  257,703;    0,000
604,550; 2599,684;  255,885;    0,000
605,128; 2618,198;  255,768;    0,000
605,707; 2639,705;  258,010;    0,000
606,285; 2653,117;  256,517;    0,000
606,864; 2672,441;  259,545;    0,000
607,442; 2697,922;  261,543;    0,000
608,020; 2720,616;  262,527;    0,000
608,599; 2740,418;  261,153;    0,000
609,177; 2773,592;  267,088;    0,000
609,755; 2791,106;  262,899;    0,000
610,333; 2812,553;  260,668;    0,000
610,912; 2842,025;  261,503;    0,000
611,490; 2860,717;  261,456;    0,000
612,068; 2875,139;  257,011;    0,000
612,646; 2897,666;  259,401;    0,000
613,224; 2912,301;  258,192;    0,000
613,802; 2931,064;  259,362;    0,000
614,380; 2948,844;  262,417;    0,000
614,958; 2959,540;  261,604;    0,000
615,535; 2976,624;  259,556;    0,000
616,113; 2991,962;  263,270;    0,000
616,691; 2998,000;  260,499;    0,000
617,269; 3012,586;  257,929;    0,000
617,846; 3022,896;  258,597;    0,000
618,424; 3037,373;  257,153;    0,000
619,002; 3050,573;  257,412;    0,000
619,579; 3053,520;  258,127;    0,000
620,157; 3066,505;  259,895;    0,000
620,734; 3078,748;  263,295;    0,000
621,312; 3082,174;  263,716;    0,000
621,889; 3090,608;  264,051;    0,000
622,467; 3101,132;  264,926;    0,000
623,044; 3108,866;  265,122;    0,000
623,621; 3125,254;  266,501;    0,000
624,198; 3135,971;  262,823;    0,000
624,776; 3148,552;  259,284;    0,000
625,353; 3167,784;  258,854;    0,000
625,930; 3188,660;  258,825;    0,000
626,507; 3204,965;  260,944;    0,000
627,084; 3227,100;  259,324;    0,000
627,661; 3245,674;  257,543;    0,000
628,238; 3262,662;  258,200;    0,000
628,815; 3283,941;  258,318;    0,000
629,392; 3300,460;  257,186;    0,000
629,969; 3325,050;  258,527;    0,000
630,546; 3347,339;  257,854;    0,000
631,123; 3366,795;  259,866;    0,000
631,700; 3392,307;  262,100;    0,000
632,276; 3416,347;  261,257;    0,000
632,853; 3440,841;  265,053;    0,000
633,430; 3462,129;  268,348;    0,000
634,006; 3475,160;  268,139;    0,000
634,583; 3491,577;  271,242;    0,000
635,160; 3506,260;  271,058;    0,000
635,736; 3516,405;  270,849;    0,000
636,313; 3532,439;  269,367;    0,000
636,889; 3546,606;  264,866;    0,000
637,466; 3562,761;  266,076;    0,000
638,042; 3581,385;  265,493;    0,000
638,618; 3598,048;  260,950;    0,000
639,194; 3610,020;  257,652;    0,000
639,771; 3629,613;  254,357;    0,000
640,347; 3653,556;  258,360;    0,000
640,923; 3672,279;  258,692;    0,000
641,499; 3688,630;  256,268;    0,000
642,075; 3704,467;  255,886;    0,000
642,651; 3728,232;  257,593;    0,000
643,227; 3758,184;  260,449;    0,000
643,803; 3779,563;  265,937;    0,000
644,379; 3797,529;  264,418;    0,000
644,955; 3812,180;  264,528;    0,000
645,531; 3830,745;  266,136;    0,000
646,107; 3846,897;  266,310;    0,000
646,683; 3852,934;  261,630;    0,000
647,259; 3863,485;  260,637;    0,000
647,834; 3878,150;  258,141;    0,000
648,410; 3887,744;  253,875;    0,000
648,986; 3904,138;  253,129;    0,000
649,561; 3920,189;  254,212;    0,000
650,137; 3935,283;  252,304;    0,000
650,712; 3949,192;  252,114;    0,000
651,288; 3965,429;  253,099;    0,000
651,863; 3985,494;  253,534;    0,000
652,439; 4002,974;  253,932;    0,000
653,014; 4022,154;  255,795;    0,000
653,589; 4045,291;  250,301;    0,000
654,165; 4068,999;  250,942;    0,000
654,740; 4103,450;  252,702;    0,000
655,315; 4131,430;  249,966;    0,000
655,890; 4162,338;  252,999;    0,000
656,465; 4187,646;  253,017;    0,000
657,040; 4208,297;  248,400;    0,000
657,616; 4222,106;  246,150;    0,000
658,191; 4255,914;  247,818;    0,000
658,766; 4279,522;  249,874;    0,000
659,340; 4300,188;  248,099;    0,000
659,915; 4323,167;  246,527;    0,000
660,490; 4350,305;  245,980;    0,000
661,065; 4393,570;  247,975;    0,000
661,640; 4430,292;  247,348;    0,000
662,215; 4453,272;  245,919;    0,000
662,789; 4482,052;  246,881;    0,000
663,364; 4512,132;  248,277;    0,000
663,939; 4535,254;  243,695;    0,000
664,513; 4568,363;  246,045;    0,000
665,088; 4583,471;  245,948;    0,000
665,662; 4612,179;  249,638;    0,000
666,237; 4638,816;  251,479;    0,000
666,811; 4669,067;  246,859;    0,000
667,385; 4701,219;  248,055;    0,000
667,960; 4731,599;  247,302;    0,000
668,534; 4762,250;  245,849;    0,000
669,108; 4799,758;  245,342;    0,000
669,683; 4831,052;  242,561;    0,000
670,257; 4870,603;  238,549;    0,000
670,831; 4904,897;  237,278;    0,000
671,405; 4943,191;  236,535;    0,000
671,979; 4983,442;  235,432;    0,000
672,553; 5025,408;  234,939;    0,000
673,127; 5073,273;  236,778;    0,000
673,701; 5113,239;  234,465;    0,000
674,275; 5154,004;  234,272;    0,000
674,849; 5199,441;  236,680;    0,000
675,423; 5238,521;  235,712;    0,000
675,997; 5281,986;  237,219;    0,000
676,570; 5322,552;  236,931;    0,000
677,144; 5355,503;  234,048;    0,000
677,718; 5401,011;  239,117;    0,000
678,292; 5443,220;  241,727;    0,000
678,865; 5484,256;  241,063;    0,000
679,439; 5523,479;  242,267;    0,000
680,012; 5556,145;  241,816;    0,000
680,586; 5586,481;  241,838;    0,000
681,159; 5623,075;  242,501;    0,000
681,733; 5647,941;  242,400;    0,000
682,306; 5675,535;  239,225;    0,000
682,879; 5702,429;  240,657;    0,000
683,453; 5739,609;  240,089;    0,000
684,026; 5778,374;  242,606;    0,000
684,599; 5822,439;  242,043;    0,000
685,172; 5856,191;  244,760;    0,000
685,745; 5902,699;  244,524;    0,000
686,318; 5944,808;  245,944;    0,000
686,891; 5993,401;  244,057;    0,000
687,464; 6033,795;  245,022;    0,000
688,037; 6069,790;  244,939;    0,000
688,610; 6102,769;  243,183;    0,000
689,183; 6147,063;  242,404;    0,000
689,756; 6187,843;  242,387;    0,000
690,329; 6221,594;  240,662;    0,000
690,902; 6265,088;  243,891;    0,000
691,474; 6305,682;  241,976;    0,000
692,047; 6363,076;  238,492;    0,000
692,620; 6426,556;  243,035;    0,000
693,192; 6474,564;  242,863;    0,000
693,765; 6525,673;  242,311;    0,000
694,337; 6577,924;  241,948;    0,000
694,910; 6622,575;  242,407;    0,000
695,482; 6677,155;  244,929;    0,000
696,055; 6720,149;  246,681;    0,000
696,627; 6767,628;  247,162;    0,000
697,199; 6807,794;  241,539;    0,000
697,772; 6850,131;  239,887;    0,000
698,344; 6904,525;  240,238;    0,000
698,916; 6954,019;  235,678;    0,000
699,488; 6993,484;  233,481;    0,000
700,060; 7040,307;  232,502;    0,000
700,633; 7078,672;  229,934;    0,000
701,205; 7129,566;  233,210;    0,000
701,777; 7174,432;  236,673;    0,000
702,349; 7219,383;  237,645;    0,000
702,920; 7255,263;  239,883;    0,000
703,492; 7289,771;  238,511;    0,000
704,064; 7328,751;  237,125;    0,000
704,636; 7374,474;  237,060;    0,000
705,208; 7430,339;  234,116;    0,000
705,779; 7490,547;  230,690;    0,000
706,351; 7547,456;  230,592;    0,000
706,923; 7610,535;  226,774;    0,000
707,494; 7685,801;  228,590;    0,000
708,066; 7751,495;  228,357;    0,000
708,638; 7817,518;  226,571;    0,000
709,209; 7882,969;  229,691;    0,000
709,780; 7942,920;  228,023;    0,000
710,352; 8001,143;  225,869;    0,000
710,923; 8072,622;  230,893;    0,000
711,494; 8133,059;  227,040;    0,000
712,066; 8208,096;  230,141;    0,000
712,637; 8274,318;  228,793;    0,000
713,208; 8343,241;  229,881;    0,000
713,779; 8414,692;  232,612;    0,000
714,350; 8484,729;  234,140;    0,000
714,922; 8530,995;  232,259;    0,000
715,492; 8595,432;  234,523;    0,000
716,064; 8648,754;  232,506;    0,000
716,634; 8694,148;  232,442;    0,000
717,205; 8746,956;  235,004;    0,000
717,776; 8804,308;  234,572;    0,000
718,347; 8851,330;  236,812;    0,000
718,918; 8917,195;  237,204;    0,000
719,489; 8972,176;  238,098;    0,000
720,059; 9019,941;  238,865;    0,000
720,630; 9080,606;  240,833;    0,000
721,201; 9136,114;  238,909;    0,000
721,771; 9195,352;  240,538;    0,000
722,342; 9264,402;  241,133;    0,000
722,912; 9330,568;  239,642;    0,000
723,483; 9396,991;  239,604;    0,000
724,053; 9470,070;  241,219;    0,000
724,623; 9540,193;  239,823;    0,000
725,194; 9604,759;  239,468;    0,000
725,764; 9677,381;  239,967;    0,000
726,334; 9746,989;  238,789;    0,000
726,904; 9803,455;  235,993;    0,000
727,475; 9881,249;  239,583;    0,000
728,045; 9944,543;  237,339;    0,000
728,615;10030,509;  237,634;    0,000
729,185;10121,202;  238,833;    0,000
729,755;10186,568;  234,822;    0,000
730,325;10255,477;  231,614;    0,000
730,895;10334,014;  234,866;    0,000
731,465;10389,236;  230,298;    0,000
732,034;10461,830;  231,329;    0,000
732,604;10505,510;  235,100;    0,000
733,174;10547,933;  232,612;    0,000
733,744;10609,341;  234,120;    0,000
734,313;10683,549;  239,443;    0,000
734,883;10757,443;  236,824;    0,000
735,453;10842,951;  239,424;    0,000
736,022;10911,646;  237,785;    0,000
736,592;10995,982;  237,104;    0,000
737,161;11074,162;  240,513;    0,000
737,731;11144,241;  242,932;    0,000
738,300;11209,436;  240,007;    0,000
738,869;11270,315;  241,203;    0,000
739,439;11317,467;  237,089;    0,000
740,008;11376,032;  239,286;    0,000
740,577;11430,740;  237,025;    0,000
741,146;11489,892;  235,741;    0,000
741,715;11556,186;  232,914;    0,000
742,284;11621,394;  234,189;    0,000
742,853;11693,217;  235,525;    0,000
743,422;11767,482;  238,814;    0,000
743,991;11833,733;  235,422;    0,000
744,560;11905,355;  236,225;    0,000
745,129;11984,407;  234,873;    0,000
745,698;12060,772;  235,886;    0,000
746,267;12135,695;  235,688;    0,000
746,836;12217,761;  233,993;    0,000
747,404;12305,598;  236,829;    0,000
747,973;12396,663;  240,615;    0,000
748,542;12462,543;  240,500;    0,000
749,110;12530,150;  242,198;    0,000
749,679;12578,959;  242,237;    0,000
750,247;12616,167;  238,475;    0,000
750,816;12665,390;  240,612;    0,000
751,384;12701,370;  235,798;    0,000
751,952;12740,521;  234,616;    0,000
752,521;12783,801;  233,754;    0,000
753,089;12818,795;  231,118;    0,000
753,657;12870,817;  231,199;    0,000
754,225;12936,969;  234,364;    0,000
754,794;12966,520;  233,773;    0,000
755,362;13012,585;  235,392;    0,000
755,930;13067,208;  238,381;    0,000
756,498;13121,645;  237,676;    0,000
757,066;13161,124;  238,056;    0,000
757,634;13215,990;  239,277;    0,000
758,202;13238,099;  239,633;    0,000
758,769;13278,021;  242,254;    0,000
759,337;13294,258;  242,770;    0,000
759,905;13295,866;  237,417;    0,000
760,473;13329,831;  238,949;    0,000
761,041;13369,840;  236,451;    0,000
761,608;13386,263;  233,946;    0,000
762,176;13431,199;  234,538;    0,000
762,743;13479,064;  231,104;    0,000
763,311;13533,730;  227,092;    0,000
763,878;13582,124;  228,504;    0,000
764,446;13625,918;  225,817;    0,000
765,013;13672,055;  228,188;    0,000
765,581;13721,264;  229,577;    0,000
766,148;13775,529;  228,399;    0,000
766,715;13806,623;  228,065;    0,000
767,282;13846,374;  232,754;    0,000
767,849;13887,097;  231,726;    0,000
768,417;13904,305;  233,958;    0,000
768,984;13915,813;  230,974;    0,000
769,551;13920,107;  230,177;    0,000
770,118;13916,373;  227,122;    0,000
770,685;13911,467;  225,045;    0,000
771,252;13902,047;  220,230;    0,000
771,819;13910,927;  221,265;    0,000
772,385;13920,906;  218,347;    0,000
772,952;13928,629;  217,637;    0,000
773,519;13945,994;  216,848;    0,000
774,086;13952,688;  217,023;    0,000
774,652;13978,539;  217,362;    0,000
775,219;13998,705;  218,477;    0,000
775,786;14018,599;  220,400;    0,000
776,352;14036,422;  221,159;    0,000
776,919;14054,658;  230,688;    0,000
777,485;14063,609;  232,504;    0,000
778,051;14088,246;  235,978;    0,000
778,618;14094,397;  236,768;    0,000
779,184;14108,663;  233,546;    0,000
779,750;14115,429;  232,536;    0,000
780,317;14122,365;  234,851;    0,000
780,883;14134,588;  229,439;    0,000
781,449;14145,225;  228,476;    0,000
782,015;14138,819;  229,833;    0,000
782,581;14133,127;  232,019;    0,000
783,147;14149,078;  236,782;    0,000
783,713;14143,758;  238,406;    0,000
784,279;14142,252;  241,429;    0,000
784,845;14124,446;  240,041;    0,000
785,411;14122,183;  243,343;    0,000
785,977;14126,777;  238,812;    0,000
786,542;14155,371;  240,275;    0,000
787,108;14147,751;  240,417;    0,000
787,674;14160,174;  239,449;    0,000
788,239;14166,481;  237,405;    0,000
788,805;14180,275;  238,727;    0,000
789,371;14195,142;  237,589;    0,000
789,936;14202,164;  238,830;    0,000
790,501;14200,887;  238,814;    0,000
791,067;14205,681;  237,998;    0,000
791,632;14205,846;  234,741;    0,000
792,198;14208,340;  235,129;    0,000
792,763;14202,948;  233,158;    0,000
793,328;14206,014;  231,396;    0,000
793,893;14210,222;  228,522;    0,000
794,458;14212,673;  225,048;    0,000
795,024;14224,496;  225,206;    0,000
795,589;14226,775;  225,859;    0,000
796,154;14221,170;  223,248;    0,000
796,719;14234,121;  223,590;    0,000
797,284;14225,215;  223,660;    0,000
797,848;14231,380;  224,112;    0,000
798,413;14232,446;  226,977;    0,000
798,978;14227,439;  229,005;    0,000
799,543;14211,334;  228,090;    0,000
800,108;14217,813;  230,094;    0,000
800,672;14229,437;  231,323;    0,000
801,237;14239,273;  231,008;    0,000
801,801;14228,882;  235,200;    0,000
802,366;14231,447;  234,892;    0,000
802,930;14210,084;  232,145;    0,000
803,495;14202,264;  238,275;    0,000
804,059;14172,543;  238,431;    0,000
804,624;14117,138;  237,756;    0,000
805,188;14066,346;  238,060;    0,000
805,752;14025,011;  236,802;    0,000
806,317;13975,263;  234,891;    0,000
806,881;13961,585;  236,899;    0,000
807,445;13952,765;  230,858;    0,000
808,009;13951,830;  231,987;    0,000
808,573;13963,710;  233,258;    0,000
809,137;13987,347;  233,104;    0,000
809,701;14011,955;  233,049;    0,000
810,265;14009,663;  231,842;    0,000
810,829;13989,058;  227,584;    0,000
811,393;13974,438;  228,269;    0,000
811,956;13963,359;  224,552;    0,000
812,520;13949,282;  221,271;    0,000
813,084;13919,391;  217,529;    0,000
813,647;13897,670;  215,274;    0,000
814,211;13889,278;  216,708;    0,000
814,775;13882,673;  217,350;    0,000
815,338;13870,096;  219,455;    0,000
815,902;13848,604;  219,377;    0,000
816,465;13830,912;  221,132;    0,000
817,029;13824,863;  224,254;    0,000
817,592;13806,771;  222,554;    0,000
818,155;13785,837;  226,002;    0,000
818,718;13761,803;  227,508;    0,000
819,282;13749,567;  225,424;    0,000
819,845;13729,162;  228,889;    0,000
820,408;13693,771;  229,960;    0,000
820,971;13637,093;  231,107;    0,000
821,534;13585,401;  236,602;    0,000
822,097;13545,795;  233,057;    0,000
822,660;13524,075;  234,239;    0,000
823,223;13482,026;  233,434;    0,000
823,786;13437,135;  230,461;    0,000
824,349;13411,886;  228,685;    0,000
824,911;13378,322;  223,821;    0,000
825,474;13358,788;  222,253;    0,000
826,037;13344,425;  224,450;    0,000
826,599;13318,762;  226,851;    0,000
827,162;13299,784;  227,611;    0,000
827,724;13291,093;  226,382;    0,000
828,287;13291,901;  228,899;    0,000
828,849;13292,609;  231,111;    0,000
829,412;13265,932;  231,830;    0,000
829,974;13237,525;  231,897;    0,000
830,536;13197,477;  227,686;    0,000
831,099;13158,085;  226,495;    0,000
831,661;13132,165;  229,581;    0,000
832,223;13101,202;  228,140;    0,000
832,785;13088,438;  226,943;    0,000
833,347;13093,618;  223,548;    0,000
833,909;13079,413;  221,826;    0,000
834,471;13088,335;  225,598;    0,000
835,033;13086,972;  226,557;    0,000
835,595;13080,523;  227,485;    0,000
836,157;13058,832;  229,588;    0,000
836,719;13026,211;  230,188;    0,000
837,281;12991,349;  230,429;    0,000
837,842;12979,214;  233,375;    0,000
838,404;12961,693;  230,963;    0,000
838,966;12951,616;  229,123;    0,000
839,527;12932,510;  223,262;    0,000
840,089;12921,804;  217,217;    0,000
840,650;12922,641;  217,485;    0,000
841,212;12923,264;  217,210;    0,000
841,773;12907,015;  212,860;    0,000
842,335;12890,681;  209,262;    0,000
842,896;12856,146;  209,367;    0,000
843,457;12847,739;  212,416;    0,000
844,018;12833,248;  218,072;    0,000
844,580;12790,785;  218,978;    0,000
845,141;12733,693;  217,723;    0,000
845,702;12692,302;  218,589;    0,000
846,263;12639,339;  221,644;    0,000
846,824;12597,961;  220,837;    0,000
847,385;12553,241;  220,625;    0,000
847,946;12502,992;  215,786;    0,000
848,507;12481,829;  218,610;    0,000
849,068;12458,966;  216,085;    0,000
849,628;12443,260;  211,449;    0,000
850,189;12423,640;  205,528;    0,000
850,750;12415,134;  206,811;    0,000
851,310;12399,685;  204,676;    0,000
851,871;12394,965;  205,028;    0,000
852,432;12390,401;  198,534;    0,000
852,992;12388,681;  203,449;    0,000
853,552;12367,375;  204,902;    0,000
854,113;12351,283;  209,414;    0,000
854,673;12336,563;  208,582;    0,000
855,234;12315,058;  208,415;    0,000
855,794;12298,494;  213,995;    0,000
856,354;12269,674;  213,423;    0,000
856,914;12240,168;  211,564;    0,000
857,474;12227,305;  212,196;    0,000
858,034;12224,713;  212,799;    0,000
858,595;12242,836;  215,144;    0,000
859,155;12245,658;  214,486;    0,000
859,714;12266,638;  209,880;    0,000
860,274;12292,032;  212,705;    0,000
860,834;12324,497;  212,379;    0,000
861,394;12347,834;  212,302;    0,000
861,954;12366,686;  211,598;    0,000
862,514;12372,279;  210,691;    0,000
863,073;12387,859;  213,722;    0,000
863,633;12376,024;  212,891;    0,000
864,192;12370,147;  210,689;    0,000
864,752;12366,799;  209,199;    0,000
865,311;12351,464;  208,288;    0,000
865,871;12357,187;  205,683;    0,000
866,430;12352,366;  204,574;    0,000
866,990;12355,246;  201,914;    0,000
867,549;12354,755;  201,525;    0,000
868,108;12349,248;  203,232;    0,000
868,667;12347,771;  204,611;    0,000
869,227;12357,108;  207,483;    0,000
869,786;12345,802;  209,208;    0,000
870,345;12340,367;  207,517;    0,000
870,904;12317,333;  203,678;    0,000
871,463;12304,756;  202,104;    0,000
872,022;12311,149;  202,946;    0,000
872,581;12314,501;  200,013;    0,000
873,140;12300,909;  194,955;    0,000
873,698;12306,917;  193,143;    0,000
874,257;12322,368;  193,468;    0,000
874,816;12356,497;  194,948;    0,000
875,374;12385,997;  195,803;    0,000
875,933;12396,111;  192,751;    0,000
876,492;12409,240;  195,932;    0,000
877,050;12435,683;  194,929;    0,000
877,609;12438,897;  195,626;    0,000
878,167;12430,240;  192,221;    0,000
878,725;12410,626;  194,023;    0,000
879,284;12400,697;  196,801;    0,000
879,842;12377,025;  194,839;    0,000
880,400;12348,969;  196,182;    0,000
880,958;12326,954;  196,298;    0,000
881,517;12311,012;  197,416;    0,000
882,075;12297,326;  201,511;    0,000
882,633;12291,111;  200,106;    0,000
883,191;12300,254;  199,201;    0,000
883,749;12317,383;  200,656;    0,000
884,307;12335,240;  202,009;    0,000
884,865;12344,826;  204,322;    0,000
885,422;12364,497;  202,072;    0,000
885,980;12392,254;  203,992;    0,000
886,538;12412,212;  205,883;    0,000
887,095;12410,583;  205,609;    0,000
887,653;12423,640;  204,133;    0,000
888,211;12439,982;  205,678;    0,000
888,768;12461,326;  207,231;    0,000
889,326;12476,555;  209,058;    0,000
889,883;12474,997;  207,308;    0,000
890,441;12503,154;  206,746;    0,000
890,998;12526,212;  209,438;    0,000
891,555;12528,640;  215,592;    0,000
892,112;12508,197;  210,616;    0,000
892,670;12498,897;  213,531;    0,000
893,227;12467,954;  211,803;    0,000
893,784;12448,482;  211,318;    0,000
894,341;12407,083;  214,995;    0,000
894,898;12347,312;  211,581;    0,000
895,455;12314,740;  210,065;    0,000
896,012;12286,669;  210,223;    0,000
896,569;12252,312;  207,255;    0,000
897,126;12245,868;  210,205;    0,000
897,682;12229,926;  210,839;    0,000
898,239;12212,769;  208,949;    0,000
898,796;12210,368;  210,133;    0,000
899,352;12191,383;  209,989;    0,000
899,909;12189,169;  211,693;    0,000
900,466;12182,154;  213,306;    0,000
901,022;12156,697;  214,936;    0,000
901,579;12117,954;  214,448;    0,000
902,135;12073,283;  212,922;    0,000
902,691;12030,411;  214,362;    0,000
903,248;11984,411;  213,655;    0,000
903,804;11929,597;  212,333;    0,000
904,360;11861,997;  211,808;    0,000
904,916;11795,297;  209,473;    0,000
905,472;11736,497;  210,672;    0,000
906,028;11675,525;  210,831;    0,000
906,584;11609,340;  208,488;    0,000
907,140;11560,368;  208,052;    0,000
907,696;11521,611;  207,505;    0,000
908,252;11494,626;  206,938;    0,000
908,808;11462,440;  205,415;    0,000
909,364;11430,426;  206,212;    0,000
909,920;11402,126;  207,193;    0,000
910,475;11399,126;  206,481;    0,000
911,031;11378,540;  206,818;    0,000
911,587;11350,383;  204,205;    0,000
912,142;11321,154;  202,702;    0,000
912,698;11308,969;  203,679;    0,000
913,253;11294,783;  199,116;    0,000
913,808;11283,226;  198,301;    0,000
914,364;11248,254;  196,593;    0,000
914,919;11226,440;  199,152;    0,000
915,474;11210,326;  203,879;    0,000
916,030;11197,525;  202,706;    0,000
916,585;11180,197;  202,881;    0,000
917,140;11174,812;  203,733;    0,000
917,695;11164,454;  200,922;    0,000
918,250;11160,197;  202,375;    0,000
918,805;11138,540;  197,023;    0,000
919,360;11109,083;  194,792;    0,000
919,915;11089,040;  197,021;    0,000
920,469;11069,012;  198,139;    0,000
921,024;11034,454;  198,038;    0,000
921,579;11010,397;  200,676;    0,000
922,134;10986,512;  200,002;    0,000
922,688;10972,068;  202,786;    0,000
923,243;10975,812;  205,515;    0,000
923,797;10958,097;  204,035;    0,000
924,352;10942,840;  204,322;    0,000
924,906;10926,469;  205,568;    0,000
925,461;10895,926;  205,309;    0,000
926,015;10869,826;  202,242;    0,000
926,569;10845,555;  200,212;    0,000
927,124;10812,411;  200,593;    0,000
927,678;10783,482;  202,859;    0,000
928,232;10745,340;  202,076;    0,000
928,786;10716,111;  201,123;    0,000
929,340;10685,154;  203,869;    0,000
929,894;10653,540;  205,491;    0,000
930,448;10630,126;  207,492;    0,000
931,002;10611,169;  207,396;    0,000
931,556;10598,383;  205,768;    0,000
932,110;10595,626;  201,841;    0,000
932,663;10594,997;  201,971;    0,000
933,217;10597,783;  200,338;    0,000
933,771;10575,911;  202,885;    0,000
934,324;10548,083;  202,963;    0,000
934,878;10501,454;  198,058;    0,000
935,432;10453,512;  199,585;    0,000
935,985;10382,226;  202,416;    0,000
936,538;10321,411;  204,139;    0,000
937,092;10273,555;  202,976;    0,000
937,645;10231,012;  200,878;    0,000
938,198;10193,826;  202,681;    0,000
938,752;10184,840;  208,393;    0,000
939,305;10173,783;  208,148;    0,000
939,858;10174,726;  208,961;    0,000
940,411;10158,482;  210,145;    0,000
940,964;10131,940;  210,751;    0,000
941,517;10123,454;  213,065;    0,000
942,070;10107,640;  212,641;    0,000
942,623;10069,055;  209,458;    0,000
943,176;10027,911;  209,573;    0,000
943,728; 9991,482;  208,258;    0,000
944,281; 9953,254;  204,818;    0,000
944,834; 9923,525;  205,989;    0,000
945,387; 9888,012;  203,591;    0,000
945,939; 9856,812;  201,319;    0,000
946,492; 9822,383;  201,376;    0,000
947,044; 9792,254;  200,701;    0,000
947,597; 9757,440;  200,166;    0,000
948,149; 9730,611;  200,548;    0,000
948,701; 9719,997;  199,722;    0,000
949,254; 9721,883;  202,352;    0,000
949,806; 9722,169;  203,593;    0,000
950,358; 9735,769;  205,059;    0,000
950,910; 9741,954;  204,118;    0,000
951,462; 9729,783;  202,639;    0,000
952,014; 9718,769;  204,869;    0,000
952,566; 9677,626;  202,698;    0,000
953,118; 9632,226;  201,818;    0,000
953,670; 9581,626;  199,145;    0,000
954,222; 9520,397;  196,979;    0,000
954,774; 9471,497;  196,936;    0,000
955,326; 9445,183;  197,469;    0,000
955,877; 9419,254;  196,769;    0,000
956,429; 9410,897;  200,098;    0,000
956,981; 9400,340;  200,093;    0,000
957,532; 9379,169;  201,002;    0,000
958,084; 9367,712;  201,536;    0,000
958,635; 9343,954;  204,051;    0,000
959,187; 9315,283;  206,759;    0,000
959,738; 9282,469;  207,136;    0,000
960,289; 9242,555;  207,635;    0,000
960,840; 9188,897;  205,733;    0,000
961,392; 9159,512;  209,435;    0,000
961,943; 9117,426;  205,886;    0,000
962,494; 9080,068;  204,815;    0,000
963,045; 9036,911;  202,815;    0,000
963,596; 9002,426;  202,466;    0,000
964,147; 8965,555;  199,959;    0,000
964,698; 8936,482;  200,381;    0,000
965,249; 8902,055;  198,676;    0,000
965,800; 8870,640;  198,108;    0,000
966,350; 8837,269;  199,271;    0,000
966,901; 8812,340;  197,022;    0,000
967,452; 8777,997;  194,105;    0,000
968,002; 8732,555;  194,813;    0,000
968,553; 8697,383;  195,785;    0,000
969,103; 8651,997;  194,262;    0,000
969,654; 8600,068;  197,573;    0,000
970,204; 8545,797;  193,316;    0,000
970,755; 8489,883;  198,635;    0,000
971,305; 8440,555;  196,475;    0,000
971,855; 8407,197;  197,563;    0,000
972,405; 8361,669;  198,476;    0,000
972,956; 8318,826;  198,329;    0,000
973,506; 8280,454;  195,188;    0,000
974,056; 8246,312;  199,055;    0,000
974,606; 8223,868;  196,771;    0,000
975,156; 8202,411;  202,006;    0,000
975,706; 8163,440;  200,901;    0,000
976,255; 8122,697;  198,085;    0,000
976,805; 8082,583;  194,115;    0,000
977,355; 8042,269;  193,511;    0,000
977,905; 8009,583;  190,249;    0,000
978,454; 7963,797;  186,708;    0,000
979,004; 7913,926;  186,169;    0,000
979,554; 7871,940;  181,323;    0,000
980,103; 7831,983;  183,672;    0,000
980,653; 7790,683;  187,109;    0,000
981,202; 7749,812;  189,989;    0,000
981,751; 7707,125;  190,483;    0,000
982,301; 7658,026;  192,135;    0,000
982,850; 7617,869;  192,056;    0,000
983,399; 7581,983;  195,139;    0,000
983,948; 7545,440;  192,845;    0,000
984,497; 7517,854;  192,408;    0,000
985,047; 7497,969;  192,701;    0,000
985,596; 7466,497;  190,479;    0,000
986,144; 7449,940;  191,313;    0,000
986,693; 7428,254;  190,216;    0,000
987,242; 7410,340;  189,391;    0,000
987,791; 7398,054;  187,878;    0,000
988,340; 7378,526;  187,055;    0,000
988,888; 7348,869;  185,666;    0,000
989,437; 7323,554;  187,833;    0,000
989,986; 7294,269;  187,305;    0,000
990,534; 7262,226;  189,511;    0,000
991,083; 7223,697;  188,602;    0,000
991,631; 7180,568;  194,181;    0,000
992,180; 7133,711;  192,253;    0,000
992,728; 7105,597;  194,729;    0,000
993,276; 7075,054;  194,772;    0,000
993,825; 7042,125;  197,686;    0,000
994,373; 7000,040;  195,889;    0,000
994,921; 6951,983;  198,619;    0,000
995,469; 6910,211;  194,948;    0,000
996,017; 6866,140;  197,799;    0,000
996,565; 6801,826;  195,386;    0,000
997,113; 6744,083;  194,233;    0,000
997,661; 6688,983;  195,701;    0,000
998,209; 6634,840;  193,923;    0,000
998,757; 6597,097;  194,433;    0,000
999,304; 6555,826;  198,521;    0,000
999,852; 6506,412;  198,102;    0,000
1000,400; 6463,940;  200,345;    0,000
1000,947; 6417,769;  202,122;    0,000
1001,495; 6370,511;  199,105;    0,000
1002,042; 6321,240;  201,096;    0,000
1002,590; 6269,454;  201,802;    0,000
1003,137; 6210,640;  201,246;    0,000
1003,684; 6169,568;  205,853;    0,000
1004,232; 6125,954;  205,866;    0,000
1004,779; 6083,483;  204,868;    0,000
1005,326; 6039,640;  204,949;    0,000
1005,873; 6001,340;  205,993;    0,000
1006,420; 5954,426;  208,981;    0,000
1006,967; 5909,969;  203,853;    0,000
1007,514; 5863,097;  200,048;    0,000
1008,061; 5828,540;  198,576;    0,000
1008,608; 5787,340;  200,879;    0,000
1009,155; 5748,111;  203,512;    0,000
1009,702; 5713,397;  200,036;    0,000
1010,248; 5681,597;  197,241;    0,000
1010,795; 5643,797;  199,646;    0,000
1011,342; 5602,883;  203,321;    0,000
1011,888; 5558,412;  207,002;    0,000
1012,435; 5514,540;  205,935;    0,000
1012,981; 5470,354;  205,785;    0,000
1013,528; 5438,140;  210,649;    0,000
1014,074; 5390,054;  211,203;    0,000
1014,620; 5355,211;  214,266;    0,000
1015,166; 5323,969;  213,948;    0,000
1015,713; 5286,997;  213,669;    0,000
1016,259; 5255,683;  212,485;    0,000
1016,805; 5223,597;  208,745;    0,000
1017,351; 5181,340;  208,248;    0,000
1017,897; 5148,226;  205,171;    0,000
1018,443; 5111,011;  201,905;    0,000
1018,989; 5074,312;  198,913;    0,000
1019,535; 5030,340;  195,983;    0,000
1020,080; 4982,668;  196,713;    0,000
1020,626; 4934,812;  199,155;    0,000
1021,172; 4875,740;  196,982;    0,000
1021,717; 4815,926;  196,409;    0,000
1022,263; 4761,269;  199,171;    0,000
1022,809; 4707,668;  199,549;    0,000
1023,354; 4664,354;  204,042;    0,000
1023,900; 4617,426;  200,485;    0,000
1024,445; 4572,211;  197,875;    0,000
1024,990; 4533,969;  198,491;    0,000
1025,536; 4492,426;  199,736;    0,000
1026,081; 4449,869;  196,598;    0,000
1026,626; 4405,240;  195,008;    0,000
1027,171; 4349,583;  190,711;    0,000
1027,716; 4303,497;  195,075;    0,000
1028,261; 4252,483;  194,342;    0,000
1028,806; 4205,897;  195,149;    0,000
1029,351; 4166,211;  194,293;    0,000
1029,896; 4127,983;  198,786;    0,000
1030,441; 4085,626;  198,806;    0,000
1030,985; 4050,097;  198,338;    0,000
1031,530; 4015,354;  196,731;    0,000
1032,075; 3976,469;  196,178;    0,000
1032,619; 3943,883;  200,828;    0,000
1033,164; 3904,583;  198,722;    0,000
1033,708; 3865,983;  196,279;    0,000
1034,253; 3825,354;  195,459;    0,000
1034,797; 3784,911;  196,476;    0,000
1035,341; 3745,069;  196,176;    0,000
1035,886; 3708,997;  198,575;    0,000
1036,430; 3665,411;  193,261;    0,000
1036,974; 3634,369;  199,781;    0,000
1037,518; 3593,954;  198,938;    0,000
1038,062; 3554,611;  199,306;    0,000
1038,606; 3517,426;  199,698;    0,000
1039,150; 3474,854;  197,595;    0,000
1039,694; 3434,211;  198,072;    0,000
1040,238; 3397,197;  197,332;    0,000
1040,782; 3354,611;  192,828;    0,000
1041,326; 3317,326;  194,282;    0,000
1041,869; 3279,340;  197,628;    0,000
1042,413; 3239,797;  198,241;    0,000
1042,957; 3200,126;  202,171;    0,000
1043,500; 3161,097;  200,459;    0,000
1044,044; 3112,911;  201,346;    0,000
1044,587; 3063,083;  201,756;    0,000
1045,130; 3019,926;  202,998;    0,000
1045,674; 2969,640;  200,305;    0,000
1046,217; 2927,426;  202,883;    0,000
1046,760; 2888,226;  201,263;    0,000
1047,304; 2851,583;  201,275;    0,000
1047,847; 2818,683;  202,502;    0,000
1048,390; 2792,597;  204,491;    0,000
1048,933; 2760,026;  203,545;    0,000
1049,476; 2736,854;  206,341;    0,000
1050,019; 2708,583;  205,258;    0,000
1050,562; 2682,011;  206,332;    0,000
1051,104; 2652,683;  208,866;    0,000
1051,647; 2627,926;  212,155;    0,000
1052,190; 2601,754;  215,566;    0,000
1052,732; 2565,769;  213,151;    0,000
1053,275; 2534,554;  209,453;    0,000
1053,818; 2502,383;  207,208;    0,000
1054,360; 2464,911;  207,191;    0,000
1054,902; 2434,611;  209,083;    0,000
1055,445; 2392,369;  203,278;    0,000
1055,987; 2361,812;  202,881;    0,000
1056,530; 2335,797;  204,958;    0,000
1057,072; 2310,326;  206,759;    0,000
1057,614; 2281,369;  203,476;    0,000
1058,156; 2264,497;  206,599;    0,000
1058,698; 2232,969;  203,358;    0,000
1059,240; 2212,554;  206,353;    0,000
1059,782; 2174,040;  203,668;    0,000
1060,324; 2143,154;  203,211;    0,000
1060,866; 2112,026;  205,362;    0,000
1061,408; 2087,326;  209,819;    0,000
1061,949; 2056,997;  209,153;    0,000
1062,491; 2033,340;  209,405;    0,000
1063,033; 2012,497;  209,529;    0,000
1063,574; 1992,697;  208,592;    0,000
1064,116; 1972,383;  206,232;    0,000
1064,657; 1950,497;  205,076;    0,000
1065,199; 1926,269;  207,033;    0,000
1065,740; 1899,840;  206,936;    0,000
1066,281; 1877,326;  209,778;    0,000
1066,823; 1847,697;  205,196;    0,000
1067,364; 1831,883;  208,968;    0,000
1067,905; 1811,854;  213,685;    0,000
1068,446; 1786,226;  212,301;    0,000
1068,987; 1761,883;  210,768;    0,000
1069,528; 1740,740;  209,179;    0,000
1070,069; 1724,654;  211,116;    0,000
1070,610; 1704,540;  212,905;    0,000
1071,151; 1677,026;  208,663;    0,000
1071,692; 1655,754;  206,752;    0,000
1072,232; 1639,083;  205,788;    0,000
1072,773; 1621,311;  204,421;    0,000
1073,314; 1605,783;  203,598;    0,000
1073,854; 1584,597;  200,458;    0,000
1074,395; 1566,440;  200,966;    0,000
1074,935; 1548,783;  202,371;    0,000
1075,476; 1530,540;  200,971;    0,000
1076,016; 1512,397;  202,911;    0,000
1076,556; 1497,240;  203,479;    0,000
1077,097; 1483,269;  205,328;    0,000
1077,637; 1468,983;  205,439;    0,000
1078,177; 1455,583;  203,913;    0,000
1078,717; 1444,754;  204,766;    0,000
1079,257; 1429,626;  206,941;    0,000
1079,797; 1421,197;  210,331;    0,000
1080,337; 1409,483;  210,848;    0,000
1080,877; 1390,669;  208,226;    0,000
1081,417; 1374,840;  207,406;    0,000
1081,956; 1357,983;  207,436;    0,000
1082,496; 1342,211;  205,606;    0,000
1083,036; 1326,811;  204,488;    0,000
1083,575; 1305,597;  200,176;    0,000
1084,115; 1285,640;  197,792;    0,000
1084,655; 1276,097;  199,815;    0,000
1085,194; 1265,126;  201,346;    0,000
1085,733; 1257,497;  203,708;    0,000
1086,273; 1249,340;  205,421;    0,000
1086,812; 1250,554;  209,239;    0,000
1087,351; 1244,897;  211,091;    0,000
1087,890; 1236,340;  210,099;    0,000
1088,429; 1223,811;  210,881;    0,000
1088,969; 1209,997;  208,909;    0,000
1089,507; 1197,626;  209,501;    0,000
1090,047; 1184,297;  209,315;    0,000
1090,585; 1162,183;  203,596;    0,000
1091,124; 1147,169;  203,602;    0,000
1091,663; 1136,569;  206,195;    0,000
1092,202; 1123,569;  207,848;    0,000
1092,740; 1111,454;  208,743;    0,000
1093,279; 1097,683;  206,413;    0,000
1093,818; 1082,826;  205,158;    0,000
1094,356; 1071,783;  208,232;    0,000
1094,895; 1058,383;  206,805;    0,000
1095,433; 1044,769;  204,838;    0,000
1095,971; 1035,154;  203,221;    0,000
1096,510; 1021,754;  201,822;    0,000
1097,048; 1008,826;  200,842;    0,000
1097,586;  995,811;  201,033;    0,000
1098,124;  983,940;  200,926;    0,000
1098,662;  978,497;  203,608;    0,000
1099,200;  969,269;  204,806;    0,000
1099,738;  960,497;  204,136;    0,000
1100,276;  955,183;  208,125;    0,000

