Test_Sonnenlicht
Integration time [ms]:   0,050
Averaging Nr. [scans]: 10
Smoothing Nr. [pixels]: 3
Data measured with spectrometer [name]: 7516255SP
Wave   ;Sample   ;Dark     ;Reference
[nm]   ;[counts] ;[counts] ;[counts] 

177,229;  238,140;  248,380;    0,000
177,829;  237,331;  245,964;    0,000
178,430;  241,328;  248,373;    0,000
179,030;  241,364;  250,642;    0,000
179,630;  244,428;  253,151;    0,000
180,230;  240,819;  249,422;    0,000
180,830;  247,106;  253,310;    0,000
181,430;  243,032;  249,852;    0,000
182,030;  248,320;  255,348;    0,000
182,630;  245,488;  252,722;    0,000
183,230;  251,261;  256,133;    0,000
183,830;  250,252;  255,035;    0,000
184,430;  256,456;  260,918;    0,000
185,030;  257,489;  265,794;    0,000
185,630;  260,897;  273,281;    0,000
186,229;  260,252;  276,549;    0,000
186,829;  262,260;  284,113;    0,000
187,429;  256,577;  284,655;    0,000
188,029;  259,347;  293,060;    0,000
188,628;  258,709;  296,144;    0,000
189,228;  259,158;  298,286;    0,000
189,828;  257,588;  301,049;    0,000
190,428;  257,451;  304,825;    0,000
191,027;  258,732;  307,658;    0,000
191,627;  260,541;  310,938;    0,000
192,227;  258,180;  308,449;    0,000
192,826;  259,048;  309,456;    0,000
193,426;  255,184;  305,352;    0,000
194,025;  257,529;  304,269;    0,000
194,625;  255,154;  297,290;    0,000
195,224;  251,026;  291,007;    0,000
195,824;  247,444;  284,067;    0,000
196,423;  248,437;  284,210;    0,000
197,023;  238,284;  273,975;    0,000
197,622;  243,318;  277,388;    0,000
198,221;  238,543;  271,407;    0,000
198,821;  235,849;  270,071;    0,000
199,420;  234,037;  267,807;    0,000
200,019;  231,916;  265,581;    0,000
200,619;  232,879;  266,708;    0,000
201,218;  237,716;  269,307;    0,000
201,817;  231,452;  262,689;    0,000
202,416;  239,193;  269,320;    0,000
203,016;  238,343;  267,603;    0,000
203,615;  241,815;  269,316;    0,000
204,214;  243,474;  268,581;    0,000
204,813;  245,249;  269,417;    0,000
205,412;  245,547;  270,504;    0,000
206,011;  245,711;  271,061;    0,000
206,610;  237,523;  262,624;    0,000
207,209;  237,701;  260,034;    0,000
207,808;  239,548;  263,300;    0,000
208,407;  239,198;  265,099;    0,000
209,006;  233,135;  259,918;    0,000
209,605;  237,081;  263,852;    0,000
210,204;  234,925;  261,611;    0,000
210,803;  236,142;  263,763;    0,000
211,402;  237,999;  267,671;    0,000
212,001;  236,001;  265,171;    0,000
212,599;  237,517;  265,613;    0,000
213,198;  237,870;  264,736;    0,000
213,797;  232,964;  258,824;    0,000
214,396;  237,032;  262,628;    0,000
214,994;  235,399;  259,891;    0,000
215,593;  233,723;  258,874;    0,000
216,192;  232,581;  256,996;    0,000
216,790;  233,995;  258,235;    0,000
217,389;  237,122;  262,211;    0,000
217,988;  240,691;  265,618;    0,000
218,586;  237,107;  261,907;    0,000
219,185;  236,423;  262,217;    0,000
219,783;  236,109;  261,125;    0,000
220,382;  239,686;  263,945;    0,000
220,980;  239,521;  265,514;    0,000
221,579;  239,471;  265,657;    0,000
222,177;  237,741;  265,160;    0,000
222,776;  238,092;  265,216;    0,000
223,374;  240,833;  267,622;    0,000
223,972;  242,368;  268,758;    0,000
224,571;  240,430;  266,607;    0,000
225,169;  239,697;  266,183;    0,000
225,767;  236,337;  263,128;    0,000
226,366;  237,862;  264,716;    0,000
226,964;  238,478;  265,381;    0,000
227,562;  237,226;  264,573;    0,000
228,160;  238,379;  266,307;    0,000
228,758;  233,887;  263,099;    0,000
229,356;  235,894;  264,018;    0,000
229,955;  236,001;  263,643;    0,000
230,553;  235,451;  262,812;    0,000
231,151;  231,954;  260,474;    0,000
231,749;  232,918;  261,002;    0,000
232,347;  232,133;  261,471;    0,000
232,945;  233,221;  263,359;    0,000
233,543;  231,937;  263,245;    0,000
234,141;  230,612;  259,740;    0,000
234,739;  232,659;  260,786;    0,000
235,337;  238,969;  266,127;    0,000
235,934;  239,896;  268,009;    0,000
236,532;  242,872;  269,234;    0,000
237,130;  244,038;  269,912;    0,000
237,728;  246,699;  271,060;    0,000
238,326;  249,977;  277,127;    0,000
238,923;  244,920;  273,391;    0,000
239,521;  241,481;  270,594;    0,000
240,119;  237,314;  264,347;    0,000
240,716;  236,582;  263,320;    0,000
241,314;  234,877;  260,868;    0,000
241,912;  229,044;  255,973;    0,000
242,509;  235,003;  260,687;    0,000
243,107;  240,444;  265,030;    0,000
243,704;  238,278;  263,643;    0,000
244,302;  245,121;  270,353;    0,000
244,899;  243,428;  268,025;    0,000
245,497;  249,048;  272,907;    0,000
246,094;  246,585;  270,101;    0,000
246,692;  239,316;  264,182;    0,000
247,289;  233,114;  258,082;    0,000
247,887;  238,754;  261,108;    0,000
248,484;  237,204;  261,014;    0,000
249,081;  231,284;  256,929;    0,000
249,679;  227,256;  254,140;    0,000
250,276;  230,685;  257,478;    0,000
250,873;  233,092;  257,489;    0,000
251,470;  239,764;  264,509;    0,000
252,067;  233,271;  257,864;    0,000
252,665;  230,423;  256,501;    0,000
253,262;  235,980;  261,268;    0,000
253,859;  238,131;  264,566;    0,000
254,456;  239,457;  266,818;    0,000
255,053;  236,262;  264,252;    0,000
255,650;  235,904;  264,688;    0,000
256,247;  236,035;  266,436;    0,000
256,844;  232,936;  262,412;    0,000
257,441;  236,753;  265,346;    0,000
258,038;  229,384;  256,555;    0,000
258,635;  232,391;  259,146;    0,000
259,232;  230,897;  258,136;    0,000
259,829;  231,342;  258,534;    0,000
260,426;  232,893;  260,226;    0,000
261,022;  238,173;  265,937;    0,000
261,619;  235,066;  263,246;    0,000
262,216;  239,712;  267,582;    0,000
262,813;  234,433;  263,416;    0,000
263,409;  237,378;  266,190;    0,000
264,006;  235,365;  263,910;    0,000
264,603;  238,801;  266,458;    0,000
265,199;  239,536;  266,212;    0,000
265,796;  234,983;  262,638;    0,000
266,393;  241,838;  270,051;    0,000
266,989;  242,380;  268,950;    0,000
267,586;  242,292;  269,445;    0,000
268,182;  244,891;  271,811;    0,000
268,779;  244,523;  271,297;    0,000
269,375;  245,673;  272,459;    0,000
269,971;  243,574;  269,812;    0,000
270,568;  241,045;  267,102;    0,000
271,164;  238,312;  265,667;    0,000
271,761;  239,837;  266,079;    0,000
272,357;  235,836;  262,751;    0,000
272,953;  235,054;  262,804;    0,000
273,550;  237,554;  263,553;    0,000
274,146;  243,168;  268,732;    0,000
274,742;  240,996;  267,040;    0,000
275,338;  242,285;  266,953;    0,000
275,934;  243,824;  269,701;    0,000
276,531;  245,292;  268,661;    0,000
277,127;  242,590;  266,833;    0,000
277,723;  237,220;  263,505;    0,000
278,319;  234,572;  260,610;    0,000
278,915;  240,836;  265,702;    0,000
279,511;  236,391;  261,135;    0,000
280,107;  236,691;  261,223;    0,000
280,703;  234,044;  261,557;    0,000
281,299;  232,747;  260,275;    0,000
281,895;  233,426;  260,898;    0,000
282,491;  232,444;  261,025;    0,000
283,086;  229,167;  260,856;    0,000
283,682;  232,385;  265,149;    0,000
284,278;  231,460;  263,061;    0,000
284,874;  228,445;  262,221;    0,000
285,470;  234,394;  268,220;    0,000
286,065;  235,555;  268,543;    0,000
286,661;  238,032;  271,852;    0,000
287,257;  234,326;  266,128;    0,000
287,852;  238,590;  269,122;    0,000
288,448;  237,425;  268,736;    0,000
289,044;  238,820;  267,845;    0,000
289,639;  236,344;  264,108;    0,000
290,235;  232,269;  261,245;    0,000
290,830;  230,114;  258,763;    0,000
291,426;  227,370;  256,138;    0,000
292,021;  227,599;  256,966;    0,000
292,617;  226,132;  252,863;    0,000
293,212;  225,473;  253,676;    0,000
293,807;  223,735;  251,590;    0,000
294,403;  229,267;  257,176;    0,000
294,998;  232,146;  259,197;    0,000
295,593;  232,083;  259,471;    0,000
296,189;  230,997;  257,496;    0,000
296,784;  228,313;  257,071;    0,000
297,379;  233,479;  258,813;    0,000
297,974;  234,784;  260,428;    0,000
298,570;  225,850;  252,022;    0,000
299,165;  223,358;  250,170;    0,000
299,760;  225,147;  250,522;    0,000
300,355;  227,808;  254,216;    0,000
300,950;  230,440;  256,042;    0,000
301,545;  227,895;  256,334;    0,000
302,140;  226,674;  255,723;    0,000
302,735;  228,429;  257,293;    0,000
303,330;  232,032;  259,781;    0,000
303,925;  229,396;  258,770;    0,000
304,520;  229,671;  258,857;    0,000
305,115;  230,780;  260,265;    0,000
305,709;  229,760;  258,280;    0,000
306,304;  229,848;  256,457;    0,000
306,899;  229,562;  255,726;    0,000
307,494;  229,455;  257,195;    0,000
308,089;  225,992;  253,993;    0,000
308,683;  224,142;  252,905;    0,000
309,278;  219,842;  249,781;    0,000
309,873;  224,879;  253,016;    0,000
310,467;  227,555;  257,138;    0,000
311,062;  231,180;  259,829;    0,000
311,656;  229,113;  256,316;    0,000
312,251;  236,935;  262,499;    0,000
312,846;  235,711;  260,375;    0,000
313,440;  240,163;  265,566;    0,000
314,035;  235,909;  262,472;    0,000
314,629;  237,509;  264,036;    0,000
315,223;  239,705;  266,656;    0,000
315,818;  242,406;  268,905;    0,000
316,412;  238,559;  265,768;    0,000
317,006;  239,800;  266,867;    0,000
317,601;  237,405;  264,141;    0,000
318,195;  241,119;  268,583;    0,000
318,789;  240,084;  267,468;    0,000
319,384;  239,505;  267,626;    0,000
319,978;  235,938;  264,087;    0,000
320,572;  239,183;  266,422;    0,000
321,166;  243,624;  270,525;    0,000
321,760;  244,670;  271,064;    0,000
322,354;  243,151;  268,470;    0,000
322,948;  241,046;  266,232;    0,000
323,542;  239,100;  262,171;    0,000
324,136;  239,818;  263,390;    0,000
324,730;  238,956;  263,056;    0,000
325,324;  233,558;  258,546;    0,000
325,918;  232,471;  257,352;    0,000
326,512;  231,469;  257,260;    0,000
327,106;  234,897;  260,163;    0,000
327,700;  233,970;  258,710;    0,000
328,294;  238,024;  262,356;    0,000
328,887;  237,132;  260,123;    0,000
329,481;  238,576;  260,701;    0,000
330,075;  240,411;  260,312;    0,000
330,669;  239,868;  256,986;    0,000
331,262;  236,308;  252,608;    0,000
331,856;  237,839;  252,427;    0,000
332,449;  235,372;  249,961;    0,000
333,043;  240,084;  253,043;    0,000
333,637;  237,919;  248,985;    0,000
334,230;  237,625;  247,576;    0,000
334,824;  239,065;  248,912;    0,000
335,417;  241,689;  249,551;    0,000
336,011;  241,921;  249,473;    0,000
336,604;  240,352;  243,618;    0,000
337,197;  236,745;  239,138;    0,000
337,791;  240,566;  241,150;    0,000
338,384;  240,271;  240,818;    0,000
338,977;  241,943;  239,483;    0,000
339,571;  240,988;  236,886;    0,000
340,164;  242,161;  235,665;    0,000
340,757;  249,449;  242,840;    0,000
341,350;  251,351;  242,880;    0,000
341,943;  250,760;  240,909;    0,000
342,537;  250,104;  238,109;    0,000
343,130;  250,911;  235,497;    0,000
343,723;  255,477;  237,841;    0,000
344,316;  255,968;  235,469;    0,000
344,909;  257,740;  233,252;    0,000
345,502;  264,248;  237,004;    0,000
346,095;  269,696;  238,174;    0,000
346,688;  279,468;  242,384;    0,000
347,281;  282,059;  241,916;    0,000
347,874;  285,406;  241,894;    0,000
348,466;  297,470;  249,562;    0,000
349,059;  302,549;  251,577;    0,000
349,652;  303,729;  246,126;    0,000
350,245;  306,412;  245,978;    0,000
350,838;  307,667;  244,679;    0,000
351,430;  314,801;  248,030;    0,000
352,023;  317,884;  244,793;    0,000
352,616;  316,059;  239,239;    0,000
353,208;  320,203;  239,597;    0,000
353,801;  327,784;  244,491;    0,000
354,393;  333,354;  245,289;    0,000
354,986;  334,886;  246,962;    0,000
355,578;  337,022;  246,807;    0,000
356,171;  341,435;  251,427;    0,000
356,763;  346,949;  255,434;    0,000
357,356;  347,608;  253,357;    0,000
357,948;  345,748;  250,493;    0,000
358,541;  349,690;  251,416;    0,000
359,133;  358,444;  251,927;    0,000
359,725;  360,600;  249,585;    0,000
360,318;  363,059;  246,151;    0,000
360,910;  367,471;  244,801;    0,000
361,502;  372,751;  244,266;    0,000
362,094;  379,441;  244,408;    0,000
362,686;  379,328;  239,185;    0,000
363,279;  380,393;  236,351;    0,000
363,871;  391,605;  241,677;    0,000
364,463;  398,955;  243,320;    0,000
365,055;  401,665;  241,634;    0,000
365,647;  408,237;  242,106;    0,000
366,239;  411,664;  240,313;    0,000
366,831;  421,193;  244,023;    0,000
367,423;  427,895;  246,456;    0,000
368,015;  426,941;  243,213;    0,000
368,607;  427,277;  243,993;    0,000
369,198;  433,750;  246,042;    0,000
369,790;  429,763;  244,907;    0,000
370,382;  428,913;  245,851;    0,000
370,974;  423,588;  243,277;    0,000
371,565;  419,669;  242,518;    0,000
372,157;  412,714;  240,254;    0,000
372,749;  409,242;  240,618;    0,000
373,341;  395,676;  234,984;    0,000
373,932;  399,265;  241,550;    0,000
374,524;  399,085;  243,270;    0,000
375,115;  399,652;  244,316;    0,000
375,707;  406,840;  247,594;    0,000
376,298;  413,165;  251,831;    0,000
376,890;  418,876;  253,240;    0,000
377,481;  426,266;  256,774;    0,000
378,073;  422,771;  250,168;    0,000
378,664;  424,301;  251,531;    0,000
379,255;  421,102;  252,147;    0,000
379,847;  412,612;  250,619;    0,000
380,438;  404,363;  247,796;    0,000
381,029;  394,782;  246,816;    0,000
381,620;  385,318;  244,288;    0,000
382,212;  378,005;  245,604;    0,000
382,803;  369,829;  243,854;    0,000
383,394;  367,581;  243,309;    0,000
383,985;  363,731;  240,939;    0,000
384,576;  369,201;  244,389;    0,000
385,167;  370,381;  242,575;    0,000
385,758;  375,500;  245,111;    0,000
386,349;  378,747;  243,712;    0,000
386,940;  388,140;  247,607;    0,000
387,531;  398,425;  252,439;    0,000
388,122;  405,831;  256,493;    0,000
388,713;  405,306;  252,911;    0,000
389,304;  412,002;  255,892;    0,000
389,895;  417,510;  257,693;    0,000
390,485;  428,963;  268,292;    0,000
391,076;  425,844;  265,205;    0,000
391,667;  423,456;  266,486;    0,000
392,258;  420,935;  265,736;    0,000
392,848;  422,310;  269,066;    0,000
393,439;  415,846;  266,276;    0,000
394,030;  413,286;  264,516;    0,000
394,620;  414,869;  260,640;    0,000
395,211;  423,820;  261,828;    0,000
395,801;  432,815;  259,375;    0,000
396,392;  442,843;  257,600;    0,000
396,982;  456,597;  255,339;    0,000
397,573;  484,528;  260,162;    0,000
398,163;  509,528;  261,856;    0,000
398,753;  525,372;  256,216;    0,000
399,344;  546,468;  255,062;    0,000
399,934;  562,621;  251,800;    0,000
400,524;  585,517;  254,322;    0,000
401,115;  603,260;  255,700;    0,000
401,705;  609,567;  250,461;    0,000
402,295;  619,150;  250,508;    0,000
402,885;  624,424;  250,221;    0,000
403,475;  628,778;  250,185;    0,000
404,065;  635,506;  251,519;    0,000
404,655;  637,505;  249,740;    0,000
405,245;  642,700;  246,981;    0,000
405,835;  654,728;  253,258;    0,000
406,425;  659,178;  255,007;    0,000
407,015;  668,207;  256,960;    0,000
407,605;  678,282;  259,085;    0,000
408,195;  687,598;  262,687;    0,000
408,785;  696,843;  262,663;    0,000
409,375;  704,001;  265,668;    0,000
409,965;  709,306;  266,054;    0,000
410,554;  720,027;  266,891;    0,000
411,144;  731,980;  270,053;    0,000
411,734;  742,103;  270,397;    0,000
412,324;  750,231;  268,015;    0,000
412,913;  761,124;  268,299;    0,000
413,503;  773,335;  271,981;    0,000
414,092;  782,742;  272,467;    0,000
414,682;  789,467;  271,922;    0,000
415,271;  790,505;  268,236;    0,000
415,861;  788,335;  265,582;    0,000
416,450;  791,824;  268,319;    0,000
417,040;  790,622;  268,633;    0,000
417,629;  789,340;  266,235;    0,000
418,219;  786,138;  262,710;    0,000
418,808;  783,985;  261,422;    0,000
419,397;  783,477;  260,415;    0,000
419,986;  788,156;  265,594;    0,000
420,576;  788,022;  267,100;    0,000
421,165;  789,154;  268,885;    0,000
421,754;  783,141;  264,798;    0,000
422,343;  782,988;  267,904;    0,000
422,932;  774,899;  264,405;    0,000
423,521;  772,859;  265,502;    0,000
424,111;  763,381;  258,886;    0,000
424,700;  761,120;  259,019;    0,000
425,289;  753,514;  256,699;    0,000
425,878;  749,501;  259,392;    0,000
426,466;  738,150;  256,014;    0,000
427,055;  732,174;  258,622;    0,000
427,644;  719,259;  259,672;    0,000
428,233;  710,600;  264,083;    0,000
428,822;  696,809;  260,465;    0,000
429,411;  689,442;  260,750;    0,000
429,999;  684,097;  262,128;    0,000
430,588;  679,750;  260,544;    0,000
431,177;  682,758;  259,795;    0,000
431,766;  691,884;  260,753;    0,000
432,354;  699,404;  260,748;    0,000
432,943;  702,625;  258,111;    0,000
433,531;  706,779;  257,433;    0,000
434,120;  713,392;  254,996;    0,000
434,708;  721,059;  255,948;    0,000
435,297;  722,789;  258,099;    0,000
435,885;  717,199;  253,315;    0,000
436,474;  713,094;  248,315;    0,000
437,062;  710,621;  246,455;    0,000
437,650;  706,861;  246,416;    0,000
438,239;  696,841;  244,101;    0,000
438,827;  693,221;  241,945;    0,000
439,415;  689,775;  237,557;    0,000
440,003;  694,859;  241,542;    0,000
440,592;  701,509;  244,478;    0,000
441,180;  708,510;  248,450;    0,000
441,768;  713,639;  245,871;    0,000
442,356;  725,079;  249,567;    0,000
442,944;  733,144;  252,979;    0,000
443,532;  739,194;  255,930;    0,000
444,120;  737,438;  249,975;    0,000
444,708;  737,396;  249,633;    0,000
445,296;  736,524;  245,660;    0,000
445,884;  740,543;  249,389;    0,000
446,472;  744,428;  247,887;    0,000
447,060;  744,273;  245,555;    0,000
447,647;  751,701;  244,988;    0,000
448,235;  760,965;  250,613;    0,000
448,823;  764,906;  249,174;    0,000
449,411;  772,703;  252,970;    0,000
449,998;  772,859;  248,784;    0,000
450,586;  772,705;  247,208;    0,000
451,173;  779,625;  250,824;    0,000
451,761;  778,595;  250,938;    0,000
452,349;  778,600;  250,993;    0,000
452,936;  782,382;  254,525;    0,000
453,524;  783,548;  252,976;    0,000
454,111;  790,124;  255,591;    0,000
454,698;  795,438;  258,294;    0,000
455,286;  802,007;  260,011;    0,000
455,873;  808,064;  261,239;    0,000
456,461;  817,713;  262,133;    0,000
457,048;  817,914;  258,698;    0,000
457,635;  824,554;  262,088;    0,000
458,222;  830,206;  263,287;    0,000
458,810;  840,259;  266,463;    0,000
459,397;  834,478;  257,990;    0,000
459,984;  842,464;  260,569;    0,000
460,571;  841,407;  256,247;    0,000
461,158;  849,864;  253,638;    0,000
461,745;  854,307;  251,734;    0,000
462,332;  857,043;  250,932;    0,000
462,919;  856,802;  248,508;    0,000
463,506;  871,784;  258,477;    0,000
464,093;  873,526;  255,464;    0,000
464,680;  877,943;  257,617;    0,000
465,267;  884,064;  263,426;    0,000
465,853;  885,020;  260,970;    0,000
466,440;  891,156;  262,505;    0,000
467,027;  895,671;  263,808;    0,000
467,614;  894,349;  259,329;    0,000
468,200;  899,473;  263,092;    0,000
468,787;  904,532;  261,737;    0,000
469,374;  909,642;  260,891;    0,000
469,960;  916,619;  263,888;    0,000
470,547;  923,843;  262,031;    0,000
471,133;  928,235;  257,284;    0,000
471,720;  940,507;  256,917;    0,000
472,306;  952,885;  257,644;    0,000
472,893;  958,501;  258,089;    0,000
473,479;  968,600;  261,826;    0,000
474,065;  978,410;  260,896;    0,000
474,652;  984,919;  262,724;    0,000
475,238;  997,306;  265,230;    0,000
475,824;  997,894;  260,808;    0,000
476,410; 1005,097;  262,634;    0,000
476,997; 1018,879;  264,502;    0,000
477,583; 1023,865;  260,916;    0,000
478,169; 1034,474;  261,974;    0,000
478,755; 1042,694;  262,301;    0,000
479,341; 1044,375;  258,638;    0,000
479,927; 1053,126;  259,911;    0,000
480,513; 1057,384;  255,849;    0,000
481,099; 1059,710;  253,465;    0,000
481,685; 1065,070;  253,179;    0,000
482,271; 1065,279;  253,007;    0,000
482,857; 1058,336;  246,490;    0,000
483,443; 1061,609;  252,079;    0,000
484,028; 1051,611;  247,732;    0,000
484,614; 1042,797;  247,765;    0,000
485,200; 1031,084;  243,439;    0,000
485,786; 1025,103;  240,957;    0,000
486,371; 1023,652;  242,400;    0,000
486,957; 1031,739;  246,578;    0,000
487,543; 1036,942;  246,197;    0,000
488,128; 1048,216;  250,206;    0,000
488,714; 1059,104;  251,568;    0,000
489,299; 1077,576;  259,992;    0,000
489,885; 1084,598;  258,537;    0,000
490,470; 1087,348;  257,390;    0,000
491,055; 1087,259;  254,111;    0,000
491,641; 1089,187;  255,055;    0,000
492,226; 1098,199;  260,389;    0,000
492,811; 1095,248;  254,750;    0,000
493,397; 1096,261;  254,919;    0,000
493,982; 1099,936;  256,648;    0,000
494,567; 1107,664;  256,162;    0,000
495,152; 1110,740;  258,532;    0,000
495,738; 1107,834;  254,086;    0,000
496,323; 1103,221;  251,843;    0,000
496,908; 1106,654;  254,065;    0,000
497,493; 1101,002;  250,812;    0,000
498,078; 1094,465;  251,709;    0,000
498,663; 1081,638;  250,125;    0,000
499,248; 1074,423;  248,506;    0,000
499,833; 1068,269;  247,788;    0,000
500,417; 1056,654;  242,695;    0,000
501,002; 1045,656;  242,193;    0,000
501,587; 1034,618;  238,914;    0,000
502,172; 1034,125;  239,588;    0,000
502,757; 1033,487;  238,194;    0,000
503,341; 1034,534;  241,729;    0,000
503,926; 1030,975;  240,716;    0,000
504,511; 1030,658;  240,903;    0,000
505,095; 1040,587;  248,322;    0,000
505,680; 1045,371;  250,122;    0,000
506,264; 1048,867;  257,819;    0,000
506,849; 1041,109;  251,368;    0,000
507,433; 1040,260;  253,752;    0,000
508,018; 1041,867;  257,965;    0,000
508,602; 1041,180;  261,651;    0,000
509,186; 1038,013;  259,215;    0,000
509,771; 1031,229;  256,574;    0,000
510,355; 1023,574;  252,093;    0,000
510,939; 1020,580;  255,325;    0,000
511,524; 1017,407;  254,618;    0,000
512,108; 1010,328;  252,347;    0,000
512,692; 1006,179;  253,454;    0,000
513,276;  987,051;  246,569;    0,000
513,860;  983,317;  251,344;    0,000
514,444;  968,264;  245,930;    0,000
515,028;  962,692;  250,616;    0,000
515,612;  947,560;  245,847;    0,000
516,196;  936,275;  246,873;    0,000
516,780;  927,968;  247,062;    0,000
517,364;  924,641;  249,719;    0,000
517,948;  919,802;  250,687;    0,000
518,532;  923,215;  254,527;    0,000
519,115;  922,189;  251,718;    0,000
519,699;  932,050;  259,501;    0,000
520,283;  937,862;  261,003;    0,000
520,867;  943,262;  260,760;    0,000
521,450;  948,863;  261,295;    0,000
522,034;  954,403;  261,988;    0,000
522,617;  954,413;  262,194;    0,000
523,201;  956,894;  265,138;    0,000
523,784;  948,079;  258,227;    0,000
524,368;  947,116;  257,385;    0,000
524,951;  946,492;  258,779;    0,000
525,535;  943,657;  259,987;    0,000
526,118;  941,219;  259,487;    0,000
526,702;  938,201;  257,499;    0,000
527,285;  940,990;  261,842;    0,000
527,868;  945,904;  262,851;    0,000
528,451;  947,997;  263,683;    0,000
529,035;  947,277;  262,356;    0,000
529,618;  949,223;  261,786;    0,000
530,201;  950,717;  262,815;    0,000
530,784;  949,892;  263,076;    0,000
531,367;  951,165;  263,668;    0,000
531,950;  949,302;  263,956;    0,000
532,533;  948,790;  266,343;    0,000
533,116;  954,711;  272,031;    0,000
533,699;  952,604;  270,042;    0,000
534,282;  949,419;  265,975;    0,000
534,865;  952,830;  265,056;    0,000
535,448;  948,778;  259,457;    0,000
536,030;  950,358;  260,227;    0,000
536,613;  951,490;  258,261;    0,000
537,196;  942,905;  250,764;    0,000
537,778;  944,324;  253,173;    0,000
538,361;  946,221;  255,563;    0,000
538,944;  948,225;  257,692;    0,000
539,526;  955,732;  264,423;    0,000
540,109;  958,569;  267,570;    0,000
540,691;  958,524;  267,620;    0,000
541,274;  966,670;  271,078;    0,000
541,856;  971,282;  271,170;    0,000
542,439;  980,868;  275,525;    0,000
543,021;  982,051;  273,547;    0,000
543,603;  985,698;  272,220;    0,000
544,186;  987,792;  268,326;    0,000
544,768;  991,380;  270,325;    0,000
545,350;  990,067;  269,367;    0,000
545,932;  992,821;  268,234;    0,000
546,515;  990,284;  265,942;    0,000
547,097;  994,067;  265,698;    0,000
547,679;  995,546;  267,069;    0,000
548,261; 1005,773;  271,534;    0,000
548,843; 1012,890;  269,930;    0,000
549,425; 1014,827;  269,030;    0,000
550,007; 1017,326;  271,009;    0,000
550,589; 1021,480;  270,362;    0,000
551,171; 1027,324;  270,839;    0,000
551,752; 1027,947;  265,105;    0,000
552,334; 1025,789;  260,576;    0,000
552,916; 1029,105;  261,238;    0,000
553,498; 1037,046;  260,454;    0,000
554,079; 1038,175;  256,369;    0,000
554,661; 1041,349;  255,012;    0,000
555,243; 1040,292;  255,472;    0,000
555,824; 1043,924;  255,996;    0,000
556,406; 1042,924;  254,216;    0,000
556,987; 1041,494;  251,841;    0,000
557,569; 1041,240;  251,488;    0,000
558,150; 1046,496;  256,323;    0,000
558,732; 1053,315;  259,544;    0,000
559,313; 1058,866;  259,289;    0,000
559,894; 1062,028;  257,912;    0,000
560,476; 1068,770;  258,311;    0,000
561,057; 1076,146;  258,022;    0,000
561,638; 1086,908;  261,086;    0,000
562,219; 1088,003;  254,565;    0,000
562,801; 1089,786;  252,044;    0,000
563,382; 1095,593;  252,728;    0,000
563,963; 1103,615;  255,558;    0,000
564,544; 1106,084;  254,343;    0,000
565,125; 1104,798;  251,563;    0,000
565,706; 1104,067;  252,219;    0,000
566,287; 1108,828;  253,565;    0,000
566,868; 1105,829;  250,874;    0,000
567,449; 1107,196;  251,190;    0,000
568,030; 1105,062;  248,971;    0,000
568,610; 1107,908;  251,542;    0,000
569,191; 1114,185;  254,743;    0,000
569,772; 1119,632;  252,371;    0,000
570,353; 1121,239;  250,584;    0,000
570,933; 1130,506;  251,704;    0,000
571,514; 1129,584;  248,239;    0,000
572,094; 1132,652;  247,208;    0,000
572,675; 1136,905;  244,184;    0,000
573,256; 1146,858;  246,226;    0,000
573,836; 1148,200;  243,062;    0,000
574,417; 1155,870;  245,329;    0,000
574,997; 1164,623;  250,444;    0,000
575,577; 1171,054;  252,240;    0,000
576,158; 1181,850;  255,950;    0,000
576,738; 1189,618;  261,059;    0,000
577,318; 1194,256;  260,621;    0,000
577,898; 1202,183;  264,233;    0,000
578,479; 1209,523;  264,338;    0,000
579,059; 1211,804;  259,650;    0,000
579,639; 1226,794;  260,547;    0,000
580,219; 1233,874;  258,823;    0,000
580,799; 1240,534;  254,051;    0,000
581,379; 1244,919;  249,415;    0,000
581,959; 1252,303;  247,527;    0,000
582,539; 1258,539;  249,237;    0,000
583,119; 1263,419;  247,717;    0,000
583,699; 1267,199;  247,045;    0,000
584,279; 1266,196;  245,597;    0,000
584,859; 1268,088;  250,336;    0,000
585,438; 1262,541;  251,422;    0,000
586,018; 1253,047;  251,537;    0,000
586,598; 1248,770;  250,061;    0,000
587,177; 1241,482;  250,660;    0,000
587,757; 1226,184;  251,752;    0,000
588,337; 1219,571;  253,612;    0,000
588,916; 1210,312;  252,747;    0,000
589,496; 1203,589;  251,183;    0,000
590,075; 1209,225;  254,184;    0,000
590,654; 1208,808;  253,285;    0,000
591,234; 1214,011;  253,104;    0,000
591,813; 1224,696;  253,109;    0,000
592,393; 1229,098;  250,467;    0,000
592,972; 1237,971;  248,901;    0,000
593,551; 1254,417;  253,295;    0,000
594,130; 1259,970;  252,929;    0,000
594,710; 1265,214;  256,140;    0,000
595,289; 1269,906;  256,350;    0,000
595,868; 1273,773;  254,909;    0,000
596,447; 1281,150;  257,732;    0,000
597,026; 1286,366;  259,218;    0,000
597,605; 1287,252;  259,170;    0,000
598,184; 1284,493;  253,643;    0,000
598,763; 1291,585;  253,969;    0,000
599,342; 1296,108;  254,811;    0,000
599,920; 1298,621;  254,227;    0,000
600,499; 1302,917;  257,179;    0,000
601,078; 1302,734;  254,611;    0,000
601,657; 1302,602;  254,015;    0,000
602,236; 1308,737;  258,225;    0,000
602,814; 1304,206;  255,697;    0,000
603,393; 1303,866;  254,089;    0,000
603,971; 1303,927;  257,703;    0,000
604,550; 1301,353;  255,885;    0,000
605,128; 1300,101;  255,768;    0,000
605,707; 1300,745;  258,010;    0,000
606,285; 1298,639;  256,517;    0,000
606,864; 1299,844;  259,545;    0,000
607,442; 1297,118;  261,543;    0,000
608,020; 1296,452;  262,527;    0,000
608,599; 1293,818;  261,153;    0,000
609,177; 1295,093;  267,088;    0,000
609,755; 1291,697;  262,899;    0,000
610,333; 1283,749;  260,668;    0,000
610,912; 1279,819;  261,503;    0,000
611,490; 1272,848;  261,456;    0,000
612,068; 1261,818;  257,011;    0,000
612,646; 1257,135;  259,401;    0,000
613,224; 1251,439;  258,192;    0,000
613,802; 1247,360;  259,362;    0,000
614,380; 1246,168;  262,417;    0,000
614,958; 1241,713;  261,604;    0,000
615,535; 1238,575;  259,556;    0,000
616,113; 1239,623;  263,270;    0,000
616,691; 1234,028;  260,499;    0,000
617,269; 1230,387;  257,929;    0,000
617,846; 1228,268;  258,597;    0,000
618,424; 1226,734;  257,153;    0,000
619,002; 1225,768;  257,412;    0,000
619,579; 1224,616;  258,127;    0,000
620,157; 1222,786;  259,895;    0,000
620,734; 1223,894;  263,295;    0,000
621,312; 1218,141;  263,716;    0,000
621,889; 1211,188;  264,051;    0,000
622,467; 1205,664;  264,926;    0,000
623,044; 1195,278;  265,122;    0,000
623,621; 1186,631;  266,501;    0,000
624,198; 1175,698;  262,823;    0,000
624,776; 1164,538;  259,284;    0,000
625,353; 1157,047;  258,854;    0,000
625,930; 1150,868;  258,825;    0,000
626,507; 1143,672;  260,944;    0,000
627,084; 1141,941;  259,324;    0,000
627,661; 1136,320;  257,543;    0,000
628,238; 1133,273;  258,200;    0,000
628,815; 1129,687;  258,318;    0,000
629,392; 1128,340;  257,186;    0,000
629,969; 1128,407;  258,527;    0,000
630,546; 1130,304;  257,854;    0,000
631,123; 1127,561;  259,866;    0,000
631,700; 1128,979;  262,100;    0,000
632,276; 1129,630;  261,257;    0,000
632,853; 1131,577;  265,053;    0,000
633,430; 1133,849;  268,348;    0,000
634,006; 1133,141;  268,139;    0,000
634,583; 1133,944;  271,242;    0,000
635,160; 1135,684;  271,058;    0,000
635,736; 1136,235;  270,849;    0,000
636,313; 1132,789;  269,367;    0,000
636,889; 1129,886;  264,866;    0,000
637,466; 1126,511;  266,076;    0,000
638,042; 1121,237;  265,493;    0,000
638,618; 1112,412;  260,950;    0,000
639,194; 1104,061;  257,652;    0,000
639,771; 1098,763;  254,357;    0,000
640,347; 1103,455;  258,360;    0,000
640,923; 1101,801;  258,692;    0,000
641,499; 1096,775;  256,268;    0,000
642,075; 1094,020;  255,886;    0,000
642,651; 1094,908;  257,593;    0,000
643,227; 1094,196;  260,449;    0,000
643,803; 1091,513;  265,937;    0,000
644,379; 1082,558;  264,418;    0,000
644,955; 1076,032;  264,528;    0,000
645,531; 1071,034;  266,136;    0,000
646,107; 1062,008;  266,310;    0,000
646,683; 1048,310;  261,630;    0,000
647,259; 1042,241;  260,637;    0,000
647,834; 1037,672;  258,141;    0,000
648,410; 1026,146;  253,875;    0,000
648,986; 1020,848;  253,129;    0,000
649,561; 1021,151;  254,212;    0,000
650,137; 1023,182;  252,304;    0,000
650,712; 1025,770;  252,114;    0,000
651,288; 1023,444;  253,099;    0,000
651,863; 1020,846;  253,534;    0,000
652,439; 1020,277;  253,932;    0,000
653,014; 1017,008;  255,795;    0,000
653,589; 1007,153;  250,301;    0,000
654,165;  999,770;  250,942;    0,000
654,740;  991,915;  252,702;    0,000
655,315;  982,746;  249,966;    0,000
655,890;  981,034;  252,999;    0,000
656,465;  978,737;  253,017;    0,000
657,040;  974,382;  248,400;    0,000
657,616;  974,341;  246,150;    0,000
658,191;  981,715;  247,818;    0,000
658,766;  993,332;  249,874;    0,000
659,340; 1002,420;  248,099;    0,000
659,915; 1008,894;  246,527;    0,000
660,490; 1016,896;  245,980;    0,000
661,065; 1023,041;  247,975;    0,000
661,640; 1025,644;  247,348;    0,000
662,215; 1025,489;  245,919;    0,000
662,789; 1026,649;  246,881;    0,000
663,364; 1029,965;  248,277;    0,000
663,939; 1024,911;  243,695;    0,000
664,513; 1026,284;  246,045;    0,000
665,088; 1026,758;  245,948;    0,000
665,662; 1033,789;  249,638;    0,000
666,237; 1035,163;  251,479;    0,000
666,811; 1031,437;  246,859;    0,000
667,385; 1032,482;  248,055;    0,000
667,960; 1035,141;  247,302;    0,000
668,534; 1034,101;  245,849;    0,000
669,108; 1035,918;  245,342;    0,000
669,683; 1032,334;  242,561;    0,000
670,257; 1029,008;  238,549;    0,000
670,831; 1028,682;  237,278;    0,000
671,405; 1027,227;  236,535;    0,000
671,979; 1020,844;  235,432;    0,000
672,553; 1023,146;  234,939;    0,000
673,127; 1024,249;  236,778;    0,000
673,701; 1019,565;  234,465;    0,000
674,275; 1019,639;  234,272;    0,000
674,849; 1020,513;  236,680;    0,000
675,423; 1019,358;  235,712;    0,000
675,997; 1027,389;  237,219;    0,000
676,570; 1028,063;  236,931;    0,000
677,144; 1026,365;  234,048;    0,000
677,718; 1034,382;  239,117;    0,000
678,292; 1038,670;  241,727;    0,000
678,865; 1038,301;  241,063;    0,000
679,439; 1040,218;  242,267;    0,000
680,012; 1037,977;  241,816;    0,000
680,586; 1038,551;  241,838;    0,000
681,159; 1039,639;  242,501;    0,000
681,733; 1038,899;  242,400;    0,000
682,306; 1035,144;  239,225;    0,000
682,879; 1032,889;  240,657;    0,000
683,453; 1025,920;  240,089;    0,000
684,026; 1015,394;  242,606;    0,000
684,599;  998,596;  242,043;    0,000
685,172;  984,370;  244,760;    0,000
685,745;  964,330;  244,524;    0,000
686,318;  944,518;  245,944;    0,000
686,891;  926,577;  244,057;    0,000
687,464;  913,751;  245,022;    0,000
688,037;  906,568;  244,939;    0,000
688,610;  901,727;  243,183;    0,000
689,183;  901,701;  242,404;    0,000
689,756;  910,132;  242,387;    0,000
690,329;  915,320;  240,662;    0,000
690,902;  923,194;  243,891;    0,000
691,474;  925,268;  241,976;    0,000
692,047;  927,085;  238,492;    0,000
692,620;  933,787;  243,035;    0,000
693,192;  934,475;  242,863;    0,000
693,765;  935,249;  242,311;    0,000
694,337;  936,951;  241,948;    0,000
694,910;  942,882;  242,407;    0,000
695,482;  951,770;  244,929;    0,000
696,055;  960,087;  246,681;    0,000
696,627;  965,804;  247,162;    0,000
697,199;  964,520;  241,539;    0,000
697,772;  959,408;  239,887;    0,000
698,344;  958,925;  240,238;    0,000
698,916;  949,885;  235,678;    0,000
699,488;  947,973;  233,481;    0,000
700,060;  945,504;  232,502;    0,000
700,633;  942,306;  229,934;    0,000
701,205;  948,094;  233,210;    0,000
701,777;  959,039;  236,673;    0,000
702,349;  963,170;  237,645;    0,000
702,920;  973,344;  239,883;    0,000
703,492;  975,075;  238,511;    0,000
704,064;  976,120;  237,125;    0,000
704,636;  979,980;  237,060;    0,000
705,208;  980,211;  234,116;    0,000
705,779;  980,085;  230,690;    0,000
706,351;  986,330;  230,592;    0,000
706,923;  983,818;  226,774;    0,000
707,494;  986,749;  228,590;    0,000
708,066;  993,437;  228,357;    0,000
708,638;  997,082;  226,571;    0,000
709,209; 1003,413;  229,691;    0,000
709,780; 1001,530;  228,023;    0,000
710,352; 1000,590;  225,869;    0,000
710,923; 1007,478;  230,893;    0,000
711,494; 1007,466;  227,040;    0,000
712,066; 1006,868;  230,141;    0,000
712,637; 1000,113;  228,793;    0,000
713,208;  994,730;  229,881;    0,000
713,779;  985,547;  232,612;    0,000
714,350;  970,221;  234,140;    0,000
714,922;  949,494;  232,259;    0,000
715,492;  923,225;  234,523;    0,000
716,064;  893,471;  232,506;    0,000
716,634;  862,616;  232,442;    0,000
717,205;  837,561;  235,004;    0,000
717,776;  815,206;  234,572;    0,000
718,347;  803,094;  236,812;    0,000
718,918;  797,168;  237,204;    0,000
719,489;  799,913;  238,098;    0,000
720,059;  805,373;  238,865;    0,000
720,630;  815,875;  240,833;    0,000
721,201;  824,921;  238,909;    0,000
721,771;  835,323;  240,538;    0,000
722,342;  842,468;  241,133;    0,000
722,912;  840,942;  239,642;    0,000
723,483;  836,044;  239,604;    0,000
724,053;  831,204;  241,219;    0,000
724,623;  826,949;  239,823;    0,000
725,194;  821,166;  239,468;    0,000
725,764;  819,225;  239,967;    0,000
726,334;  815,299;  238,789;    0,000
726,904;  814,159;  235,993;    0,000
727,475;  822,133;  239,583;    0,000
728,045;  825,678;  237,339;    0,000
728,615;  831,052;  237,634;    0,000
729,185;  841,640;  238,833;    0,000
729,755;  848,114;  234,822;    0,000
730,325;  856,802;  231,614;    0,000
730,895;  873,147;  234,866;    0,000
731,465;  883,078;  230,298;    0,000
732,034;  902,609;  231,329;    0,000
732,604;  924,640;  235,100;    0,000
733,174;  936,242;  232,612;    0,000
733,744;  951,745;  234,120;    0,000
734,313;  968,233;  239,443;    0,000
734,883;  975,792;  236,824;    0,000
735,453;  987,337;  239,424;    0,000
736,022;  988,611;  237,785;    0,000
736,592;  991,428;  237,104;    0,000
737,161; 1001,673;  240,513;    0,000
737,731; 1007,018;  242,932;    0,000
738,300; 1009,235;  240,007;    0,000
738,869; 1012,795;  241,203;    0,000
739,439; 1012,040;  237,089;    0,000
740,008; 1020,814;  239,286;    0,000
740,577; 1022,287;  237,025;    0,000
741,146; 1021,404;  235,741;    0,000
741,715; 1023,335;  232,914;    0,000
742,284; 1027,438;  234,189;    0,000
742,853; 1034,440;  235,525;    0,000
743,422; 1044,599;  238,814;    0,000
743,991; 1043,116;  235,422;    0,000
744,560; 1046,704;  236,225;    0,000
745,129; 1047,078;  234,873;    0,000
745,698; 1049,209;  235,886;    0,000
746,267; 1051,354;  235,688;    0,000
746,836; 1047,814;  233,993;    0,000
747,404; 1044,316;  236,829;    0,000
747,973; 1046,476;  240,615;    0,000
748,542; 1042,835;  240,500;    0,000
749,110; 1045,180;  242,198;    0,000
749,679; 1041,969;  242,237;    0,000
750,247; 1031,414;  238,475;    0,000
750,816; 1036,616;  240,612;    0,000
751,384; 1035,961;  235,798;    0,000
751,952; 1034,007;  234,616;    0,000
752,521; 1036,509;  233,754;    0,000
753,089; 1031,140;  231,118;    0,000
753,657; 1031,528;  231,199;    0,000
754,225; 1039,402;  234,364;    0,000
754,794; 1031,890;  233,773;    0,000
755,362; 1024,664;  235,392;    0,000
755,930; 1015,152;  238,381;    0,000
756,498;  986,797;  237,676;    0,000
757,066;  948,842;  238,056;    0,000
757,634;  902,288;  239,277;    0,000
758,202;  846,419;  239,633;    0,000
758,769;  788,550;  242,254;    0,000
759,337;  724,095;  242,770;    0,000
759,905;  655,354;  237,417;    0,000
760,473;  607,800;  238,949;    0,000
761,041;  575,702;  236,451;    0,000
761,608;  556,776;  233,946;    0,000
762,176;  551,778;  234,538;    0,000
762,743;  553,038;  231,104;    0,000
763,311;  571,669;  227,092;    0,000
763,878;  605,457;  228,504;    0,000
764,446;  641,859;  225,817;    0,000
765,013;  683,362;  228,188;    0,000
765,581;  723,935;  229,577;    0,000
766,148;  764,109;  228,399;    0,000
766,715;  804,969;  228,065;    0,000
767,282;  844,257;  232,754;    0,000
767,849;  874,531;  231,726;    0,000
768,417;  901,319;  233,958;    0,000
768,984;  914,735;  230,974;    0,000
769,551;  931,095;  230,177;    0,000
770,118;  938,283;  227,122;    0,000
770,685;  942,085;  225,045;    0,000
771,252;  940,031;  220,230;    0,000
771,819;  940,190;  221,265;    0,000
772,385;  936,150;  218,347;    0,000
772,952;  937,181;  217,637;    0,000
773,519;  933,483;  216,848;    0,000
774,086;  930,243;  217,023;    0,000
774,652;  928,545;  217,362;    0,000
775,219;  928,305;  218,477;    0,000
775,786;  931,378;  220,400;    0,000
776,352;  929,224;  221,159;    0,000
776,919;  933,855;  230,688;    0,000
777,485;  931,814;  232,504;    0,000
778,051;  933,602;  235,978;    0,000
778,618;  931,290;  236,768;    0,000
779,184;  924,135;  233,546;    0,000
779,750;  918,338;  232,536;    0,000
780,317;  917,955;  234,851;    0,000
780,883;  913,371;  229,439;    0,000
781,449;  909,131;  228,476;    0,000
782,015;  905,590;  229,833;    0,000
782,581;  904,993;  232,019;    0,000
783,147;  908,124;  236,782;    0,000
783,713;  906,540;  238,406;    0,000
784,279;  904,771;  241,429;    0,000
784,845;  897,702;  240,041;    0,000
785,411;  894,019;  243,343;    0,000
785,977;  883,507;  238,812;    0,000
786,542;  875,338;  240,275;    0,000
787,108;  866,612;  240,417;    0,000
787,674;  857,900;  239,449;    0,000
788,239;  848,617;  237,405;    0,000
788,805;  841,990;  238,727;    0,000
789,371;  835,093;  237,589;    0,000
789,936;  831,352;  238,830;    0,000
790,501;  827,469;  238,814;    0,000
791,067;  823,757;  237,998;    0,000
791,632;  816,788;  234,741;    0,000
792,198;  816,205;  235,129;    0,000
792,763;  807,564;  233,158;    0,000
793,328;  801,995;  231,396;    0,000
793,893;  794,983;  228,522;    0,000
794,458;  790,257;  225,048;    0,000
795,024;  786,331;  225,206;    0,000
795,589;  782,019;  225,859;    0,000
796,154;  773,379;  223,248;    0,000
796,719;  773,038;  223,590;    0,000
797,284;  770,098;  223,660;    0,000
797,848;  767,371;  224,112;    0,000
798,413;  767,888;  226,977;    0,000
798,978;  766,105;  229,005;    0,000
799,543;  760,093;  228,090;    0,000
800,108;  759,352;  230,094;    0,000
800,672;  757,355;  231,323;    0,000
801,237;  755,800;  231,008;    0,000
801,801;  755,445;  235,200;    0,000
802,366;  749,048;  234,892;    0,000
802,930;  741,307;  232,145;    0,000
803,495;  747,010;  238,275;    0,000
804,059;  744,155;  238,431;    0,000
804,624;  741,200;  237,756;    0,000
805,188;  739,788;  238,060;    0,000
805,752;  739,876;  236,802;    0,000
806,317;  736,936;  234,891;    0,000
806,881;  736,881;  236,899;    0,000
807,445;  727,241;  230,858;    0,000
808,009;  724,086;  231,987;    0,000
808,573;  718,774;  233,258;    0,000
809,137;  709,562;  233,104;    0,000
809,701;  697,564;  233,049;    0,000
810,265;  682,767;  231,842;    0,000
810,829;  667,541;  227,584;    0,000
811,393;  654,129;  228,269;    0,000
811,956;  636,331;  224,552;    0,000
812,520;  617,333;  221,271;    0,000
813,084;  596,522;  217,529;    0,000
813,647;  579,038;  215,274;    0,000
814,211;  564,712;  216,708;    0,000
814,775;  552,400;  217,350;    0,000
815,338;  544,417;  219,455;    0,000
815,902;  536,419;  219,377;    0,000
816,465;  534,507;  221,132;    0,000
817,029;  536,810;  224,254;    0,000
817,592;  538,212;  222,554;    0,000
818,155;  547,957;  226,002;    0,000
818,718;  552,374;  227,508;    0,000
819,282;  552,248;  225,424;    0,000
819,845;  556,836;  228,889;    0,000
820,408;  559,338;  229,960;    0,000
820,971;  562,312;  231,107;    0,000
821,534;  565,200;  236,602;    0,000
822,097;  560,074;  233,057;    0,000
822,660;  559,162;  234,239;    0,000
823,223;  559,865;  233,434;    0,000
823,786;  558,938;  230,461;    0,000
824,349;  559,598;  228,685;    0,000
824,911;  554,972;  223,821;    0,000
825,474;  554,431;  222,253;    0,000
826,037;  557,462;  224,450;    0,000
826,599;  561,136;  226,851;    0,000
827,162;  559,010;  227,611;    0,000
827,724;  555,284;  226,382;    0,000
828,287;  553,415;  228,899;    0,000
828,849;  553,817;  231,111;    0,000
829,412;  554,105;  231,830;    0,000
829,974;  552,965;  231,897;    0,000
830,536;  548,624;  227,686;    0,000
831,099;  548,369;  226,495;    0,000
831,661;  553,415;  229,581;    0,000
832,223;  554,603;  228,140;    0,000
832,785;  552,577;  226,943;    0,000
833,347;  552,136;  223,548;    0,000
833,909;  552,238;  221,826;    0,000
834,471;  556,927;  225,598;    0,000
835,033;  561,758;  226,557;    0,000
835,595;  564,231;  227,485;    0,000
836,157;  567,691;  229,588;    0,000
836,719;  572,922;  230,188;    0,000
837,281;  572,567;  230,429;    0,000
837,842;  578,012;  233,375;    0,000
838,404;  578,558;  230,963;    0,000
838,966;  577,917;  229,123;    0,000
839,527;  571,219;  223,262;    0,000
840,089;  566,836;  217,217;    0,000
840,650;  565,839;  217,485;    0,000
841,212;  566,941;  217,210;    0,000
841,773;  560,929;  212,860;    0,000
842,335;  553,431;  209,262;    0,000
842,896;  549,748;  209,367;    0,000
843,457;  554,151;  212,416;    0,000
844,018;  556,910;  218,072;    0,000
844,580;  557,641;  218,978;    0,000
845,141;  552,815;  217,723;    0,000
845,702;  551,046;  218,589;    0,000
846,263;  554,448;  221,644;    0,000
846,824;  552,708;  220,837;    0,000
847,385;  550,210;  220,625;    0,000
847,946;  543,870;  215,786;    0,000
848,507;  542,386;  218,610;    0,000
849,068;  539,274;  216,085;    0,000
849,628;  533,820;  211,449;    0,000
850,189;  525,179;  205,528;    0,000
850,750;  522,724;  206,811;    0,000
851,310;  514,670;  204,676;    0,000
851,871;  509,101;  205,028;    0,000
852,432;  500,574;  198,534;    0,000
852,992;  500,077;  203,449;    0,000
853,552;  498,222;  204,902;    0,000
854,113;  500,253;  209,414;    0,000
854,673;  499,670;  208,582;    0,000
855,234;  501,772;  208,415;    0,000
855,794;  510,846;  213,995;    0,000
856,354;  514,734;  213,423;    0,000
856,914;  515,693;  211,564;    0,000
857,474;  517,382;  212,196;    0,000
858,034;  519,541;  212,799;    0,000
858,595;  520,986;  215,144;    0,000
859,155;  521,303;  214,486;    0,000
859,714;  516,463;  209,880;    0,000
860,274;  515,636;  212,705;    0,000
860,834;  512,553;  212,379;    0,000
861,394;  510,513;  212,302;    0,000
861,954;  508,429;  211,598;    0,000
862,514;  508,503;  210,691;    0,000
863,073;  507,448;  213,722;    0,000
863,633;  500,422;  212,891;    0,000
864,192;  493,382;  210,689;    0,000
864,752;  489,113;  209,199;    0,000
865,311;  485,615;  208,288;    0,000
865,871;  479,532;  205,683;    0,000
866,430;  474,120;  204,574;    0,000
866,990;  468,265;  201,914;    0,000
867,549;  470,882;  201,525;    0,000
868,108;  474,727;  203,232;    0,000
868,667;  477,058;  204,611;    0,000
869,227;  482,175;  207,483;    0,000
869,786;  485,106;  209,208;    0,000
870,345;  483,751;  207,517;    0,000
870,904;  480,067;  203,678;    0,000
871,463;  474,698;  202,104;    0,000
872,022;  472,301;  202,946;    0,000
872,581;  466,946;  200,013;    0,000
873,140;  459,777;  194,955;    0,000
873,698;  455,322;  193,143;    0,000
874,257;  454,039;  193,468;    0,000
874,816;  457,510;  194,948;    0,000
875,374;  460,382;  195,803;    0,000
875,933;  457,782;  192,751;    0,000
876,492;  458,782;  195,932;    0,000
877,050;  458,996;  194,929;    0,000
877,609;  459,953;  195,626;    0,000
878,167;  454,053;  192,221;    0,000
878,725;  451,796;  194,023;    0,000
879,284;  453,068;  196,801;    0,000
879,842;  448,053;  194,839;    0,000
880,400;  449,625;  196,182;    0,000
880,958;  446,582;  196,298;    0,000
881,517;  444,853;  197,416;    0,000
882,075;  448,139;  201,511;    0,000
882,633;  446,282;  200,106;    0,000
883,191;  444,282;  199,201;    0,000
883,749;  445,496;  200,656;    0,000
884,307;  444,825;  202,009;    0,000
884,865;  444,725;  204,322;    0,000
885,422;  444,467;  202,072;    0,000
885,980;  446,725;  203,992;    0,000
886,538;  448,453;  205,883;    0,000
887,095;  443,810;  205,609;    0,000
887,653;  441,967;  204,133;    0,000
888,211;  447,168;  205,678;    0,000
888,768;  449,439;  207,231;    0,000
889,326;  447,439;  209,058;    0,000
889,883;  443,196;  207,308;    0,000
890,441;  440,525;  206,746;    0,000
890,998;  441,082;  209,438;    0,000
891,555;  442,853;  215,592;    0,000
892,112;  430,110;  210,616;    0,000
892,670;  426,196;  213,531;    0,000
893,227;  418,796;  211,803;    0,000
893,784;  412,625;  211,318;    0,000
894,341;  407,110;  214,995;    0,000
894,898;  395,668;  211,581;    0,000
895,455;  385,168;  210,065;    0,000
896,012;  377,267;  210,223;    0,000
896,569;  366,568;  207,255;    0,000
897,126;  362,782;  210,205;    0,000
897,682;  356,596;  210,839;    0,000
898,239;  351,353;  208,949;    0,000
898,796;  349,953;  210,133;    0,000
899,352;  349,396;  209,989;    0,000
899,909;  351,267;  211,693;    0,000
900,466;  353,339;  213,306;    0,000
901,022;  356,996;  214,936;    0,000
901,579;  358,096;  214,448;    0,000
902,135;  359,082;  212,922;    0,000
902,691;  363,339;  214,362;    0,000
903,248;  363,696;  213,655;    0,000
903,804;  363,882;  212,333;    0,000
904,360;  363,925;  211,808;    0,000
904,916;  359,910;  209,473;    0,000
905,472;  359,653;  210,672;    0,000
906,028;  355,367;  210,831;    0,000
906,584;  348,996;  208,488;    0,000
907,140;  345,725;  208,052;    0,000
907,696;  340,625;  207,505;    0,000
908,252;  335,582;  206,938;    0,000
908,808;  330,068;  205,415;    0,000
909,364;  329,896;  206,212;    0,000
909,920;  329,125;  207,193;    0,000
910,475;  326,068;  206,481;    0,000
911,031;  323,425;  206,818;    0,000
911,587;  316,939;  204,205;    0,000
912,142;  313,967;  202,702;    0,000
912,698;  313,696;  203,679;    0,000
913,253;  305,682;  199,116;    0,000
913,808;  302,082;  198,301;    0,000
914,364;  300,253;  196,593;    0,000
914,919;  302,110;  199,152;    0,000
915,474;  308,225;  203,879;    0,000
916,030;  308,482;  202,706;    0,000
916,585;  310,610;  202,881;    0,000
917,140;  315,325;  203,733;    0,000
917,695;  317,510;  200,922;    0,000
918,250;  324,696;  202,375;    0,000
918,805;  324,310;  197,023;    0,000
919,360;  324,439;  194,792;    0,000
919,915;  327,196;  197,021;    0,000
920,469;  328,467;  198,139;    0,000
921,024;  326,739;  198,038;    0,000
921,579;  327,896;  200,676;    0,000
922,134;  325,367;  200,002;    0,000
922,688;  324,882;  202,786;    0,000
923,243;  326,267;  205,515;    0,000
923,797;  324,010;  204,035;    0,000
924,352;  322,953;  204,322;    0,000
924,906;  322,696;  205,568;    0,000
925,461;  318,253;  205,309;    0,000
926,015;  307,853;  202,242;    0,000
926,569;  301,610;  200,212;    0,000
927,124;  296,625;  200,593;    0,000
927,678;  290,053;  202,859;    0,000
928,232;  280,425;  202,076;    0,000
928,786;  269,925;  201,123;    0,000
929,340;  265,096;  203,869;    0,000
929,894;  259,053;  205,491;    0,000
930,448;  253,225;  207,492;    0,000
931,002;  246,210;  207,396;    0,000
931,556;  240,353;  205,768;    0,000
932,110;  232,068;  201,841;    0,000
932,663;  228,982;  201,971;    0,000
933,217;  225,039;  200,338;    0,000
933,771;  226,725;  202,885;    0,000
934,324;  224,839;  202,963;    0,000
934,878;  217,367;  198,058;    0,000
935,432;  218,025;  199,585;    0,000
935,985;  220,753;  202,416;    0,000
936,538;  224,125;  204,139;    0,000
937,092;  224,425;  202,976;    0,000
937,645;  223,953;  200,878;    0,000
938,198;  228,582;  202,681;    0,000
938,752;  237,653;  208,393;    0,000
939,305;  239,825;  208,148;    0,000
939,858;  241,967;  208,961;    0,000
940,411;  243,239;  210,145;    0,000
940,964;  243,553;  210,751;    0,000
941,517;  245,268;  213,065;    0,000
942,070;  243,053;  212,641;    0,000
942,623;  238,610;  209,458;    0,000
943,176;  237,396;  209,573;    0,000
943,728;  233,925;  208,258;    0,000
944,281;  229,010;  204,818;    0,000
944,834;  229,825;  205,989;    0,000
945,387;  227,768;  203,591;    0,000
945,939;  225,196;  201,319;    0,000
946,492;  225,282;  201,376;    0,000
947,044;  224,982;  200,701;    0,000
947,597;  228,182;  200,166;    0,000
948,149;  228,882;  200,548;    0,000
948,701;  227,439;  199,722;    0,000
949,254;  228,996;  202,352;    0,000
949,806;  231,596;  203,593;    0,000
950,358;  232,396;  205,059;    0,000
950,910;  230,453;  204,118;    0,000
951,462;  227,639;  202,639;    0,000
952,014;  231,982;  204,869;    0,000
952,566;  230,667;  202,698;    0,000
953,118;  230,639;  201,818;    0,000
953,670;  228,068;  199,145;    0,000
954,222;  227,439;  196,979;    0,000
954,774;  230,882;  196,936;    0,000
955,326;  233,867;  197,469;    0,000
955,877;  231,867;  196,769;    0,000
956,429;  236,310;  200,098;    0,000
956,981;  236,996;  200,093;    0,000
957,532;  238,068;  201,002;    0,000
958,084;  239,839;  201,536;    0,000
958,635;  242,196;  204,051;    0,000
959,187;  243,382;  206,759;    0,000
959,738;  244,839;  207,136;    0,000
960,289;  246,568;  207,635;    0,000
960,840;  245,510;  205,733;    0,000
961,392;  251,553;  209,435;    0,000
961,943;  247,225;  205,886;    0,000
962,494;  246,039;  204,815;    0,000
963,045;  246,510;  202,815;    0,000
963,596;  247,810;  202,466;    0,000
964,147;  246,210;  199,959;    0,000
964,698;  248,782;  200,381;    0,000
965,249;  248,310;  198,676;    0,000
965,800;  250,453;  198,108;    0,000
966,350;  256,110;  199,271;    0,000
966,901;  256,382;  197,022;    0,000
967,452;  256,996;  194,105;    0,000
968,002;  259,653;  194,813;    0,000
968,553;  262,996;  195,785;    0,000
969,103;  264,096;  194,262;    0,000
969,654;  269,882;  197,573;    0,000
970,204;  265,010;  193,316;    0,000
970,755;  269,996;  198,635;    0,000
971,305;  265,910;  196,475;    0,000
971,855;  267,082;  197,563;    0,000
972,405;  266,339;  198,476;    0,000
972,956;  262,810;  198,329;    0,000
973,506;  257,939;  195,188;    0,000
974,056;  260,796;  199,055;    0,000
974,606;  257,725;  196,771;    0,000
975,156;  264,353;  202,006;    0,000
975,706;  262,096;  200,901;    0,000
976,255;  260,110;  198,085;    0,000
976,805;  256,239;  194,115;    0,000
977,355;  256,267;  193,511;    0,000
977,905;  251,782;  190,249;    0,000
978,454;  247,010;  186,708;    0,000
979,004;  246,639;  186,169;    0,000
979,554;  243,367;  181,323;    0,000
980,103;  246,310;  183,672;    0,000
980,653;  252,039;  187,109;    0,000
981,202;  256,982;  189,989;    0,000
981,751;  260,625;  190,483;    0,000
982,301;  265,496;  192,135;    0,000
982,850;  266,867;  192,056;    0,000
983,399;  270,653;  195,139;    0,000
983,948;  268,096;  192,845;    0,000
984,497;  267,196;  192,408;    0,000
985,047;  267,353;  192,701;    0,000
985,596;  264,767;  190,479;    0,000
986,144;  263,625;  191,313;    0,000
986,693;  261,682;  190,216;    0,000
987,242;  260,467;  189,391;    0,000
987,791;  258,353;  187,878;    0,000
988,340;  259,582;  187,055;    0,000
988,888;  257,625;  185,666;    0,000
989,437;  260,939;  187,833;    0,000
989,986;  259,867;  187,305;    0,000
990,534;  262,510;  189,511;    0,000
991,083;  262,853;  188,602;    0,000
991,631;  267,953;  194,181;    0,000
992,180;  264,496;  192,253;    0,000
992,728;  266,396;  194,729;    0,000
993,276;  264,925;  194,772;    0,000
993,825;  267,767;  197,686;    0,000
994,373;  264,339;  195,889;    0,000
994,921;  264,253;  198,619;    0,000
995,469;  260,939;  194,948;    0,000
996,017;  263,682;  197,799;    0,000
996,565;  260,668;  195,386;    0,000
997,113;  258,553;  194,233;    0,000
997,661;  259,410;  195,701;    0,000
998,209;  255,710;  193,923;    0,000
998,757;  257,668;  194,433;    0,000
999,304;  261,782;  198,521;    0,000
999,852;  259,753;  198,102;    0,000
1000,400;  261,696;  200,345;    0,000
1000,947;  263,439;  202,122;    0,000
1001,495;  260,467;  199,105;    0,000
1002,042;  264,996;  201,096;    0,000
1002,590;  263,367;  201,802;    0,000
1003,137;  261,596;  201,246;    0,000
1003,684;  266,282;  205,853;    0,000
1004,232;  265,953;  205,866;    0,000
1004,779;  264,082;  204,868;    0,000
1005,326;  264,253;  204,949;    0,000
1005,873;  262,953;  205,993;    0,000
1006,420;  267,425;  208,981;    0,000
1006,967;  261,610;  203,853;    0,000
1007,514;  257,396;  200,048;    0,000
1008,061;  255,739;  198,576;    0,000
1008,608;  255,867;  200,879;    0,000
1009,155;  257,753;  203,512;    0,000
1009,702;  255,439;  200,036;    0,000
1010,248;  250,125;  197,241;    0,000
1010,795;  253,367;  199,646;    0,000
1011,342;  256,710;  203,321;    0,000
1011,888;  258,353;  207,002;    0,000
1012,435;  258,882;  205,935;    0,000
1012,981;  257,825;  205,785;    0,000
1013,528;  259,110;  210,649;    0,000
1014,074;  259,039;  211,203;    0,000
1014,620;  260,610;  214,266;    0,000
1015,166;  258,582;  213,948;    0,000
1015,713;  257,710;  213,669;    0,000
1016,259;  254,982;  212,485;    0,000
1016,805;  251,310;  208,745;    0,000
1017,351;  252,539;  208,248;    0,000
1017,897;  249,853;  205,171;    0,000
1018,443;  247,596;  201,905;    0,000
1018,989;  244,525;  198,913;    0,000
1019,535;  241,268;  195,983;    0,000
1020,080;  242,510;  196,713;    0,000
1020,626;  246,110;  199,155;    0,000
1021,172;  243,667;  196,982;    0,000
1021,717;  242,125;  196,409;    0,000
1022,263;  243,053;  199,171;    0,000
1022,809;  243,382;  199,549;    0,000
1023,354;  248,068;  204,042;    0,000
1023,900;  241,939;  200,485;    0,000
1024,445;  237,396;  197,875;    0,000
1024,990;  236,482;  198,491;    0,000
1025,536;  236,467;  199,736;    0,000
1026,081;  232,296;  196,598;    0,000
1026,626;  231,553;  195,008;    0,000
1027,171;  226,382;  190,711;    0,000
1027,716;  231,410;  195,075;    0,000
1028,261;  229,367;  194,342;    0,000
1028,806;  229,867;  195,149;    0,000
1029,351;  231,110;  194,293;    0,000
1029,896;  235,696;  198,786;    0,000
1030,441;  233,682;  198,806;    0,000
1030,985;  233,182;  198,338;    0,000
1031,530;  231,610;  196,731;    0,000
1032,075;  231,596;  196,178;    0,000
1032,619;  236,467;  200,828;    0,000
1033,164;  232,910;  198,722;    0,000
1033,708;  230,210;  196,279;    0,000
1034,253;  226,710;  195,459;    0,000
1034,797;  225,882;  196,476;    0,000
1035,341;  225,139;  196,176;    0,000
1035,886;  225,253;  198,575;    0,000
1036,430;  219,525;  193,261;    0,000
1036,974;  224,296;  199,781;    0,000
1037,518;  224,296;  198,938;    0,000
1038,062;  226,725;  199,306;    0,000
1038,606;  225,525;  199,698;    0,000
1039,150;  222,596;  197,595;    0,000
1039,694;  223,910;  198,072;    0,000
1040,238;  223,125;  197,332;    0,000
1040,782;  219,482;  192,828;    0,000
1041,326;  218,496;  194,282;    0,000
1041,869;  221,839;  197,628;    0,000
1042,413;  223,382;  198,241;    0,000
1042,957;  228,096;  202,171;    0,000
1043,500;  225,653;  200,459;    0,000
1044,044;  224,710;  201,346;    0,000
1044,587;  223,768;  201,756;    0,000
1045,130;  225,096;  202,998;    0,000
1045,674;  221,496;  200,305;    0,000
1046,217;  224,982;  202,883;    0,000
1046,760;  222,310;  201,263;    0,000
1047,304;  222,525;  201,275;    0,000
1047,847;  223,853;  202,502;    0,000
1048,390;  227,410;  204,491;    0,000
1048,933;  225,467;  203,545;    0,000
1049,476;  226,382;  206,341;    0,000
1050,019;  224,853;  205,258;    0,000
1050,562;  225,253;  206,332;    0,000
1051,104;  227,925;  208,866;    0,000
1051,647;  229,896;  212,155;    0,000
1052,190;  231,139;  215,566;    0,000
1052,732;  228,082;  213,151;    0,000
1053,275;  225,068;  209,453;    0,000
1053,818;  222,367;  207,208;    0,000
1054,360;  221,753;  207,191;    0,000
1054,902;  222,739;  209,083;    0,000
1055,445;  217,096;  203,278;    0,000
1055,987;  216,439;  202,881;    0,000
1056,530;  219,382;  204,958;    0,000
1057,072;  221,382;  206,759;    0,000
1057,614;  217,496;  203,476;    0,000
1058,156;  221,268;  206,599;    0,000
1058,698;  217,839;  203,358;    0,000
1059,240;  220,910;  206,353;    0,000
1059,782;  216,182;  203,668;    0,000
1060,324;  215,753;  203,211;    0,000
1060,866;  216,453;  205,362;    0,000
1061,408;  221,439;  209,819;    0,000
1061,949;  220,153;  209,153;    0,000
1062,491;  219,182;  209,405;    0,000
1063,033;  219,225;  209,529;    0,000
1063,574;  219,210;  208,592;    0,000
1064,116;  216,910;  206,232;    0,000
1064,657;  217,896;  205,076;    0,000
1065,199;  218,996;  207,033;    0,000
1065,740;  217,596;  206,936;    0,000
1066,281;  220,410;  209,778;    0,000
1066,823;  216,867;  205,196;    0,000
1067,364;  220,553;  208,968;    0,000
1067,905;  224,082;  213,685;    0,000
1068,446;  220,010;  212,301;    0,000
1068,987;  217,339;  210,768;    0,000
1069,528;  216,082;  209,179;    0,000
1070,069;  217,339;  211,116;    0,000
1070,610;  217,453;  212,905;    0,000
1071,151;  213,239;  208,663;    0,000
1071,692;  212,053;  206,752;    0,000
1072,232;  211,768;  205,788;    0,000
1072,773;  210,653;  204,421;    0,000
1073,314;  209,568;  203,598;    0,000
1073,854;  206,710;  200,458;    0,000
1074,395;  205,639;  200,966;    0,000
1074,935;  206,982;  202,371;    0,000
1075,476;  204,167;  200,971;    0,000
1076,016;  205,439;  202,911;    0,000
1076,556;  207,125;  203,479;    0,000
1077,097;  207,696;  205,328;    0,000
1077,637;  207,739;  205,439;    0,000
1078,177;  206,196;  203,913;    0,000
1078,717;  207,982;  204,766;    0,000
1079,257;  210,296;  206,941;    0,000
1079,797;  214,810;  210,331;    0,000
1080,337;  214,482;  210,848;    0,000
1080,877;  213,382;  208,226;    0,000
1081,417;  211,596;  207,406;    0,000
1081,956;  212,010;  207,436;    0,000
1082,496;  208,225;  205,606;    0,000
1083,036;  207,296;  204,488;    0,000
1083,575;  202,053;  200,176;    0,000
1084,115;  199,653;  197,792;    0,000
1084,655;  202,639;  199,815;    0,000
1085,194;  205,682;  201,346;    0,000
1085,733;  209,310;  203,708;    0,000
1086,273;  212,068;  205,421;    0,000
1086,812;  213,810;  209,239;    0,000
1087,351;  215,110;  211,091;    0,000
1087,890;  214,025;  210,099;    0,000
1088,429;  213,739;  210,881;    0,000
1088,969;  211,068;  208,909;    0,000
1089,507;  211,667;  209,501;    0,000
1090,047;  211,582;  209,315;    0,000
1090,585;  207,253;  203,596;    0,000
1091,124;  208,410;  203,602;    0,000
1091,663;  210,125;  206,195;    0,000
1092,202;  211,068;  207,848;    0,000
1092,740;  211,710;  208,743;    0,000
1093,279;  206,725;  206,413;    0,000
1093,818;  204,810;  205,158;    0,000
1094,356;  206,696;  208,232;    0,000
1094,895;  204,382;  206,805;    0,000
1095,433;  202,125;  204,838;    0,000
1095,971;  201,453;  203,221;    0,000
1096,510;  199,596;  201,822;    0,000
1097,048;  200,225;  200,842;    0,000
1097,586;  200,768;  201,033;    0,000
1098,124;  201,139;  200,926;    0,000
1098,662;  202,553;  203,608;    0,000
1099,200;  203,425;  204,806;    0,000
1099,738;  200,725;  204,136;    0,000
1100,276;  204,839;  208,125;    0,000

