
Integration time [ms]:   0,050
Averaging Nr. [scans]: 10
Smoothing Nr. [pixels]: 3
Data measured with spectrometer [name]: 7516255SP
Wave   ;Sample   ;Dark     ;Reference
[nm]   ;[counts] ;[counts] ;[counts] 

177,229;  236,952;  248,380;    0,000
177,829;  235,658;  245,964;    0,000
178,430;  239,443;  248,373;    0,000
179,030;  240,386;  250,642;    0,000
179,630;  242,690;  253,151;    0,000
180,230;  239,212;  249,422;    0,000
180,830;  244,609;  253,310;    0,000
181,430;  241,249;  249,852;    0,000
182,030;  245,666;  255,348;    0,000
182,630;  241,604;  252,722;    0,000
183,230;  245,653;  256,133;    0,000
183,830;  244,042;  255,035;    0,000
184,430;  248,753;  260,918;    0,000
185,030;  249,520;  265,794;    0,000
185,630;  252,807;  273,281;    0,000
186,229;  252,661;  276,549;    0,000
186,829;  256,455;  284,113;    0,000
187,429;  251,818;  284,655;    0,000
188,029;  255,379;  293,060;    0,000
188,628;  254,415;  296,144;    0,000
189,228;  255,287;  298,286;    0,000
189,828;  255,464;  301,049;    0,000
190,428;  255,986;  304,825;    0,000
191,027;  256,154;  307,658;    0,000
191,627;  259,224;  310,938;    0,000
192,227;  257,386;  308,449;    0,000
192,826;  258,235;  309,456;    0,000
193,426;  254,857;  305,352;    0,000
194,025;  256,270;  304,269;    0,000
194,625;  253,180;  297,290;    0,000
195,224;  250,487;  291,007;    0,000
195,824;  245,417;  284,067;    0,000
196,423;  245,934;  284,210;    0,000
197,023;  236,866;  273,975;    0,000
197,622;  240,710;  277,388;    0,000
198,221;  235,528;  271,407;    0,000
198,821;  234,741;  270,071;    0,000
199,420;  235,109;  267,807;    0,000
200,019;  232,776;  265,581;    0,000
200,619;  235,112;  266,708;    0,000
201,218;  239,151;  269,307;    0,000
201,817;  233,704;  262,689;    0,000
202,416;  241,078;  269,320;    0,000
203,016;  240,787;  267,603;    0,000
203,615;  242,617;  269,316;    0,000
204,214;  243,404;  268,581;    0,000
204,813;  243,952;  269,417;    0,000
205,412;  244,368;  270,504;    0,000
206,011;  244,601;  271,061;    0,000
206,610;  236,641;  262,624;    0,000
207,209;  233,174;  260,034;    0,000
207,808;  233,989;  263,300;    0,000
208,407;  235,084;  265,099;    0,000
209,006;  229,705;  259,918;    0,000
209,605;  232,795;  263,852;    0,000
210,204;  230,110;  261,611;    0,000
210,803;  231,815;  263,763;    0,000
211,402;  236,385;  267,671;    0,000
212,001;  234,559;  265,171;    0,000
212,599;  235,280;  265,613;    0,000
213,198;  235,004;  264,736;    0,000
213,797;  230,625;  258,824;    0,000
214,396;  234,976;  262,628;    0,000
214,994;  232,942;  259,891;    0,000
215,593;  231,556;  258,874;    0,000
216,192;  229,714;  256,996;    0,000
216,790;  229,809;  258,235;    0,000
217,389;  233,921;  262,211;    0,000
217,988;  236,818;  265,618;    0,000
218,586;  233,563;  261,907;    0,000
219,185;  232,165;  262,217;    0,000
219,783;  229,590;  261,125;    0,000
220,382;  232,094;  263,945;    0,000
220,980;  234,516;  265,514;    0,000
221,579;  235,740;  265,657;    0,000
222,177;  234,737;  265,160;    0,000
222,776;  234,719;  265,216;    0,000
223,374;  237,974;  267,622;    0,000
223,972;  241,111;  268,758;    0,000
224,571;  238,918;  266,607;    0,000
225,169;  238,311;  266,183;    0,000
225,767;  233,069;  263,128;    0,000
226,366;  233,793;  264,716;    0,000
226,964;  232,824;  265,381;    0,000
227,562;  231,888;  264,573;    0,000
228,160;  232,353;  266,307;    0,000
228,758;  229,936;  263,099;    0,000
229,356;  231,755;  264,018;    0,000
229,955;  233,146;  263,643;    0,000
230,553;  233,669;  262,812;    0,000
231,151;  232,055;  260,474;    0,000
231,749;  232,920;  261,002;    0,000
232,347;  233,835;  261,471;    0,000
232,945;  235,592;  263,359;    0,000
233,543;  234,622;  263,245;    0,000
234,141;  231,337;  259,740;    0,000
234,739;  233,257;  260,786;    0,000
235,337;  238,536;  266,127;    0,000
235,934;  239,016;  268,009;    0,000
236,532;  239,922;  269,234;    0,000
237,130;  237,901;  269,912;    0,000
237,728;  238,906;  271,060;    0,000
238,326;  244,085;  277,127;    0,000
238,923;  239,854;  273,391;    0,000
239,521;  237,472;  270,594;    0,000
240,119;  232,249;  264,347;    0,000
240,716;  232,321;  263,320;    0,000
241,314;  231,504;  260,868;    0,000
241,912;  226,870;  255,973;    0,000
242,509;  231,558;  260,687;    0,000
243,107;  235,770;  265,030;    0,000
243,704;  234,462;  263,643;    0,000
244,302;  241,578;  270,353;    0,000
244,899;  237,215;  268,025;    0,000
245,497;  242,269;  272,907;    0,000
246,094;  239,280;  270,101;    0,000
246,692;  233,769;  264,182;    0,000
247,289;  227,285;  258,082;    0,000
247,887;  230,986;  261,108;    0,000
248,484;  230,034;  261,014;    0,000
249,081;  227,998;  256,929;    0,000
249,679;  225,422;  254,140;    0,000
250,276;  229,951;  257,478;    0,000
250,873;  230,147;  257,489;    0,000
251,470;  238,075;  264,509;    0,000
252,067;  231,427;  257,864;    0,000
252,665;  228,036;  256,501;    0,000
253,262;  231,064;  261,268;    0,000
253,859;  235,127;  264,566;    0,000
254,456;  235,709;  266,818;    0,000
255,053;  232,944;  264,252;    0,000
255,650;  232,086;  264,688;    0,000
256,247;  233,589;  266,436;    0,000
256,844;  232,352;  262,412;    0,000
257,441;  236,602;  265,346;    0,000
258,038;  227,935;  256,555;    0,000
258,635;  232,372;  259,146;    0,000
259,232;  231,475;  258,136;    0,000
259,829;  233,402;  258,534;    0,000
260,426;  234,752;  260,226;    0,000
261,022;  241,670;  265,937;    0,000
261,619;  238,831;  263,246;    0,000
262,216;  243,507;  267,582;    0,000
262,813;  239,254;  263,416;    0,000
263,409;  241,871;  266,190;    0,000
264,006;  238,877;  263,910;    0,000
264,603;  242,487;  266,458;    0,000
265,199;  240,395;  266,212;    0,000
265,796;  237,000;  262,638;    0,000
266,393;  243,783;  270,051;    0,000
266,989;  241,711;  268,950;    0,000
267,586;  242,222;  269,445;    0,000
268,182;  243,746;  271,811;    0,000
268,779;  243,079;  271,297;    0,000
269,375;  246,058;  272,459;    0,000
269,971;  243,670;  269,812;    0,000
270,568;  239,013;  267,102;    0,000
271,164;  237,636;  265,667;    0,000
271,761;  238,963;  266,079;    0,000
272,357;  236,477;  262,751;    0,000
272,953;  236,077;  262,804;    0,000
273,550;  236,035;  263,553;    0,000
274,146;  240,148;  268,732;    0,000
274,742;  240,309;  267,040;    0,000
275,338;  241,199;  266,953;    0,000
275,934;  242,723;  269,701;    0,000
276,531;  239,561;  268,661;    0,000
277,127;  238,644;  266,833;    0,000
277,723;  233,641;  263,505;    0,000
278,319;  231,206;  260,610;    0,000
278,915;  235,268;  265,702;    0,000
279,511;  229,432;  261,135;    0,000
280,107;  231,118;  261,223;    0,000
280,703;  233,313;  261,557;    0,000
281,299;  230,674;  260,275;    0,000
281,895;  232,236;  260,898;    0,000
282,491;  232,165;  261,025;    0,000
283,086;  231,730;  260,856;    0,000
283,682;  235,121;  265,149;    0,000
284,278;  232,267;  263,061;    0,000
284,874;  229,591;  262,221;    0,000
285,470;  237,381;  268,220;    0,000
286,065;  239,342;  268,543;    0,000
286,661;  243,107;  271,852;    0,000
287,257;  237,586;  266,128;    0,000
287,852;  240,561;  269,122;    0,000
288,448;  240,194;  268,736;    0,000
289,044;  242,134;  267,845;    0,000
289,639;  237,076;  264,108;    0,000
290,235;  232,700;  261,245;    0,000
290,830;  230,274;  258,763;    0,000
291,426;  227,515;  256,138;    0,000
292,021;  228,730;  256,966;    0,000
292,617;  224,593;  252,863;    0,000
293,212;  224,762;  253,676;    0,000
293,807;  223,297;  251,590;    0,000
294,403;  227,615;  257,176;    0,000
294,998;  228,625;  259,197;    0,000
295,593;  230,179;  259,471;    0,000
296,189;  227,708;  257,496;    0,000
296,784;  225,971;  257,071;    0,000
297,379;  227,125;  258,813;    0,000
297,974;  227,332;  260,428;    0,000
298,570;  220,901;  252,022;    0,000
299,165;  218,478;  250,170;    0,000
299,760;  217,525;  250,522;    0,000
300,355;  220,245;  254,216;    0,000
300,950;  224,191;  256,042;    0,000
301,545;  224,932;  256,334;    0,000
302,140;  224,975;  255,723;    0,000
302,735;  226,716;  257,293;    0,000
303,330;  230,992;  259,781;    0,000
303,925;  232,653;  258,770;    0,000
304,520;  235,153;  258,857;    0,000
305,115;  236,171;  260,265;    0,000
305,709;  234,696;  258,280;    0,000
306,304;  235,200;  256,457;    0,000
306,899;  235,513;  255,726;    0,000
307,494;  238,094;  257,195;    0,000
308,089;  235,134;  253,993;    0,000
308,683;  234,976;  252,905;    0,000
309,278;  234,876;  249,781;    0,000
309,873;  241,787;  253,016;    0,000
310,467;  247,783;  257,138;    0,000
311,062;  251,839;  259,829;    0,000
311,656;  250,617;  256,316;    0,000
312,251;  258,955;  262,499;    0,000
312,846;  260,375;  260,375;    0,000
313,440;  267,126;  265,566;    0,000
314,035;  263,944;  262,472;    0,000
314,629;  265,055;  264,036;    0,000
315,223;  269,178;  266,656;    0,000
315,818;  274,036;  268,905;    0,000
316,412;  272,855;  265,768;    0,000
317,006;  275,777;  266,867;    0,000
317,601;  273,308;  264,141;    0,000
318,195;  281,060;  268,583;    0,000
318,789;  284,323;  267,468;    0,000
319,384;  289,899;  267,626;    0,000
319,978;  289,243;  264,087;    0,000
320,572;  296,378;  266,422;    0,000
321,166;  302,191;  270,525;    0,000
321,760;  306,980;  271,064;    0,000
322,354;  307,721;  268,470;    0,000
322,948;  309,529;  266,232;    0,000
323,542;  308,444;  262,171;    0,000
324,136;  313,706;  263,390;    0,000
324,730;  317,390;  263,056;    0,000
325,324;  320,054;  258,546;    0,000
325,918;  322,642;  257,352;    0,000
326,512;  327,273;  257,260;    0,000
327,106;  333,147;  260,163;    0,000
327,700;  336,206;  258,710;    0,000
328,294;  342,145;  262,356;    0,000
328,887;  343,113;  260,123;    0,000
329,481;  345,343;  260,701;    0,000
330,075;  349,451;  260,312;    0,000
330,669;  347,880;  256,986;    0,000
331,262;  345,547;  252,608;    0,000
331,856;  345,183;  252,427;    0,000
332,449;  344,175;  249,961;    0,000
333,043;  347,672;  253,043;    0,000
333,637;  342,780;  248,985;    0,000
334,230;  339,931;  247,576;    0,000
334,824;  339,146;  248,912;    0,000
335,417;  340,001;  249,551;    0,000
336,011;  339,834;  249,473;    0,000
336,604;  332,895;  243,618;    0,000
337,197;  328,089;  239,138;    0,000
337,791;  331,279;  241,150;    0,000
338,384;  330,896;  240,818;    0,000
338,977;  331,469;  239,483;    0,000
339,571;  327,796;  236,886;    0,000
340,164;  326,955;  235,665;    0,000
340,757;  335,473;  242,840;    0,000
341,350;  335,575;  242,880;    0,000
341,943;  334,743;  240,909;    0,000
342,537;  331,887;  238,109;    0,000
343,130;  329,855;  235,497;    0,000
343,723;  334,823;  237,841;    0,000
344,316;  334,786;  235,469;    0,000
344,909;  333,845;  233,252;    0,000
345,502;  338,298;  237,004;    0,000
346,095;  338,848;  238,174;    0,000
346,688;  348,305;  242,384;    0,000
347,281;  352,746;  241,916;    0,000
347,874;  355,222;  241,894;    0,000
348,466;  364,727;  249,562;    0,000
349,059;  370,336;  251,577;    0,000
349,652;  370,118;  246,126;    0,000
350,245;  375,773;  245,978;    0,000
350,838;  377,370;  244,679;    0,000
351,430;  384,044;  248,030;    0,000
352,023;  383,997;  244,793;    0,000
352,616;  382,944;  239,239;    0,000
353,208;  387,038;  239,597;    0,000
353,801;  396,432;  244,491;    0,000
354,393;  400,863;  245,289;    0,000
354,986;  400,706;  246,962;    0,000
355,578;  400,469;  246,807;    0,000
356,171;  406,867;  251,427;    0,000
356,763;  411,771;  255,434;    0,000
357,356;  409,273;  253,357;    0,000
357,948;  405,941;  250,493;    0,000
358,541;  406,368;  251,416;    0,000
359,133;  413,349;  251,927;    0,000
359,725;  415,967;  249,585;    0,000
360,318;  415,008;  246,151;    0,000
360,910;  416,076;  244,801;    0,000
361,502;  418,344;  244,266;    0,000
362,094;  423,146;  244,408;    0,000
362,686;  424,734;  239,185;    0,000
363,279;  426,839;  236,351;    0,000
363,871;  437,950;  241,677;    0,000
364,463;  448,131;  243,320;    0,000
365,055;  454,997;  241,634;    0,000
365,647;  464,970;  242,106;    0,000
366,239;  468,467;  240,313;    0,000
366,831;  476,196;  244,023;    0,000
367,423;  481,385;  246,456;    0,000
368,015;  477,184;  243,213;    0,000
368,607;  475,737;  243,993;    0,000
369,198;  474,486;  246,042;    0,000
369,790;  471,170;  244,907;    0,000
370,382;  468,623;  245,851;    0,000
370,974;  462,041;  243,277;    0,000
371,565;  455,653;  242,518;    0,000
372,157;  449,342;  240,254;    0,000
372,749;  445,566;  240,618;    0,000
373,341;  436,697;  234,984;    0,000
373,932;  438,341;  241,550;    0,000
374,524;  440,662;  243,270;    0,000
375,115;  443,442;  244,316;    0,000
375,707;  448,759;  247,594;    0,000
376,298;  457,344;  251,831;    0,000
376,890;  463,040;  253,240;    0,000
377,481;  472,450;  256,774;    0,000
378,073;  469,613;  250,168;    0,000
378,664;  468,872;  251,531;    0,000
379,255;  465,088;  252,147;    0,000
379,847;  458,606;  250,619;    0,000
380,438;  449,498;  247,796;    0,000
381,029;  438,173;  246,816;    0,000
381,620;  425,063;  244,288;    0,000
382,212;  415,646;  245,604;    0,000
382,803;  407,779;  243,854;    0,000
383,394;  402,157;  243,309;    0,000
383,985;  398,406;  240,939;    0,000
384,576;  401,899;  244,389;    0,000
385,167;  401,412;  242,575;    0,000
385,758;  404,420;  245,111;    0,000
386,349;  406,226;  243,712;    0,000
386,940;  411,791;  247,607;    0,000
387,531;  419,911;  252,439;    0,000
388,122;  426,954;  256,493;    0,000
388,713;  426,570;  252,911;    0,000
389,304;  431,863;  255,892;    0,000
389,895;  437,580;  257,693;    0,000
390,485;  449,524;  268,292;    0,000
391,076;  447,734;  265,205;    0,000
391,667;  449,280;  266,486;    0,000
392,258;  446,348;  265,736;    0,000
392,848;  446,187;  269,066;    0,000
393,439;  440,336;  266,276;    0,000
394,030;  436,622;  264,516;    0,000
394,620;  437,555;  260,640;    0,000
395,211;  446,560;  261,828;    0,000
395,801;  453,881;  259,375;    0,000
396,392;  466,707;  257,600;    0,000
396,982;  481,845;  255,339;    0,000
397,573;  510,242;  260,162;    0,000
398,163;  540,621;  261,856;    0,000
398,753;  558,042;  256,216;    0,000
399,344;  578,989;  255,062;    0,000
399,934;  597,266;  251,800;    0,000
400,524;  617,170;  254,322;    0,000
401,115;  633,767;  255,700;    0,000
401,705;  642,128;  250,461;    0,000
402,295;  650,320;  250,508;    0,000
402,885;  658,195;  250,221;    0,000
403,475;  664,623;  250,185;    0,000
404,065;  669,913;  251,519;    0,000
404,655;  675,259;  249,740;    0,000
405,245;  682,599;  246,981;    0,000
405,835;  694,446;  253,258;    0,000
406,425;  700,741;  255,007;    0,000
407,015;  709,242;  256,960;    0,000
407,605;  717,361;  259,085;    0,000
408,195;  730,619;  262,687;    0,000
408,785;  738,394;  262,663;    0,000
409,375;  747,677;  265,668;    0,000
409,965;  755,993;  266,054;    0,000
410,554;  766,631;  266,891;    0,000
411,144;  781,797;  270,053;    0,000
411,734;  792,236;  270,397;    0,000
412,324;  798,421;  268,015;    0,000
412,913;  807,302;  268,299;    0,000
413,503;  819,503;  271,981;    0,000
414,092;  827,821;  272,467;    0,000
414,682;  834,135;  271,922;    0,000
415,271;  831,147;  268,236;    0,000
415,861;  833,750;  265,582;    0,000
416,450;  837,968;  268,319;    0,000
417,040;  838,909;  268,633;    0,000
417,629;  835,399;  266,235;    0,000
418,219;  835,558;  262,710;    0,000
418,808;  833,863;  261,422;    0,000
419,397;  831,857;  260,415;    0,000
419,986;  835,010;  265,594;    0,000
420,576;  837,793;  267,100;    0,000
421,165;  838,740;  268,885;    0,000
421,754;  833,555;  264,798;    0,000
422,343;  832,146;  267,904;    0,000
422,932;  824,986;  264,405;    0,000
423,521;  822,817;  265,502;    0,000
424,111;  811,909;  258,886;    0,000
424,700;  806,204;  259,019;    0,000
425,289;  798,287;  256,699;    0,000
425,878;  797,417;  259,392;    0,000
426,466;  783,535;  256,014;    0,000
427,055;  775,758;  258,622;    0,000
427,644;  765,328;  259,672;    0,000
428,233;  760,968;  264,083;    0,000
428,822;  744,861;  260,465;    0,000
429,411;  736,296;  260,750;    0,000
429,999;  725,150;  262,128;    0,000
430,588;  719,773;  260,544;    0,000
431,177;  721,237;  259,795;    0,000
431,766;  729,448;  260,753;    0,000
432,354;  732,298;  260,748;    0,000
432,943;  739,060;  258,111;    0,000
433,531;  745,984;  257,433;    0,000
434,120;  754,340;  254,996;    0,000
434,708;  762,823;  255,948;    0,000
435,297;  768,697;  258,099;    0,000
435,885;  765,020;  253,315;    0,000
436,474;  761,389;  248,315;    0,000
437,062;  756,692;  246,455;    0,000
437,650;  752,534;  246,416;    0,000
438,239;  745,732;  244,101;    0,000
438,827;  741,285;  241,945;    0,000
439,415;  736,785;  237,557;    0,000
440,003;  742,616;  241,542;    0,000
440,592;  747,583;  244,478;    0,000
441,180;  755,927;  248,450;    0,000
441,768;  760,484;  245,871;    0,000
442,356;  769,929;  249,567;    0,000
442,944;  773,924;  252,979;    0,000
443,532;  776,947;  255,930;    0,000
444,120;  769,564;  249,975;    0,000
444,708;  770,579;  249,633;    0,000
445,296;  768,954;  245,660;    0,000
445,884;  775,916;  249,389;    0,000
446,472;  778,316;  247,887;    0,000
447,060;  783,519;  245,555;    0,000
447,647;  790,590;  244,988;    0,000
448,235;  806,284;  250,613;    0,000
448,823;  811,367;  249,174;    0,000
449,411;  819,306;  252,970;    0,000
449,998;  817,576;  248,784;    0,000
450,586;  820,281;  247,208;    0,000
451,173;  826,602;  250,824;    0,000
451,761;  826,115;  250,938;    0,000
452,349;  826,721;  250,993;    0,000
452,936;  831,288;  254,525;    0,000
453,524;  831,428;  252,976;    0,000
454,111;  838,634;  255,591;    0,000
454,698;  843,434;  258,294;    0,000
455,286;  848,778;  260,011;    0,000
455,873;  855,391;  261,239;    0,000
456,461;  862,275;  262,133;    0,000
457,048;  862,281;  258,698;    0,000
457,635;  872,163;  262,088;    0,000
458,222;  877,689;  263,287;    0,000
458,810;  885,598;  266,463;    0,000
459,397;  884,847;  257,990;    0,000
459,984;  892,605;  260,569;    0,000
460,571;  889,158;  256,247;    0,000
461,158;  893,843;  253,638;    0,000
461,745;  896,272;  251,734;    0,000
462,332;  898,077;  250,932;    0,000
462,919;  899,180;  248,508;    0,000
463,506;  910,103;  258,477;    0,000
464,093;  907,216;  255,464;    0,000
464,680;  915,006;  257,617;    0,000
465,267;  925,724;  263,426;    0,000
465,853;  929,151;  260,970;    0,000
466,440;  933,518;  262,505;    0,000
467,027;  938,005;  263,808;    0,000
467,614;  937,070;  259,329;    0,000
468,200;  948,912;  263,092;    0,000
468,787;  953,843;  261,737;    0,000
469,374;  958,703;  260,891;    0,000
469,960;  965,511;  263,888;    0,000
470,547;  974,251;  262,031;    0,000
471,133;  979,232;  257,284;    0,000
471,720;  992,303;  256,917;    0,000
472,306; 1002,783;  257,644;    0,000
472,893; 1010,181;  258,089;    0,000
473,479; 1020,665;  261,826;    0,000
474,065; 1028,074;  260,896;    0,000
474,652; 1037,253;  262,724;    0,000
475,238; 1046,583;  265,230;    0,000
475,824; 1048,944;  260,808;    0,000
476,410; 1056,705;  262,634;    0,000
476,997; 1068,532;  264,502;    0,000
477,583; 1076,066;  260,916;    0,000
478,169; 1085,192;  261,974;    0,000
478,755; 1093,570;  262,301;    0,000
479,341; 1097,536;  258,638;    0,000
479,927; 1103,914;  259,911;    0,000
480,513; 1109,458;  255,849;    0,000
481,099; 1111,783;  253,465;    0,000
481,685; 1112,868;  253,179;    0,000
482,271; 1113,119;  253,007;    0,000
482,857; 1103,232;  246,490;    0,000
483,443; 1106,491;  252,079;    0,000
484,028; 1096,456;  247,732;    0,000
484,614; 1086,356;  247,765;    0,000
485,200; 1072,682;  243,439;    0,000
485,786; 1064,159;  240,957;    0,000
486,371; 1064,467;  242,400;    0,000
486,957; 1069,887;  246,578;    0,000
487,543; 1077,949;  246,197;    0,000
488,128; 1092,776;  250,206;    0,000
488,714; 1106,236;  251,568;    0,000
489,299; 1126,170;  259,992;    0,000
489,885; 1135,752;  258,537;    0,000
490,470; 1142,270;  257,390;    0,000
491,055; 1147,767;  254,111;    0,000
491,641; 1149,523;  255,055;    0,000
492,226; 1154,338;  260,389;    0,000
492,811; 1151,961;  254,750;    0,000
493,397; 1156,302;  254,919;    0,000
493,982; 1161,406;  256,648;    0,000
494,567; 1163,320;  256,162;    0,000
495,152; 1167,211;  258,532;    0,000
495,738; 1162,447;  254,086;    0,000
496,323; 1160,863;  251,843;    0,000
496,908; 1159,840;  254,065;    0,000
497,493; 1150,613;  250,812;    0,000
498,078; 1143,536;  251,709;    0,000
498,663; 1133,495;  250,125;    0,000
499,248; 1120,809;  248,506;    0,000
499,833; 1111,059;  247,788;    0,000
500,417; 1095,987;  242,695;    0,000
501,002; 1090,275;  242,193;    0,000
501,587; 1079,882;  238,914;    0,000
502,172; 1075,101;  239,588;    0,000
502,757; 1073,979;  238,194;    0,000
503,341; 1079,656;  241,729;    0,000
503,926; 1077,563;  240,716;    0,000
504,511; 1077,402;  240,903;    0,000
505,095; 1082,474;  248,322;    0,000
505,680; 1086,100;  250,122;    0,000
506,264; 1092,442;  257,819;    0,000
506,849; 1081,027;  251,368;    0,000
507,433; 1080,766;  253,752;    0,000
508,018; 1084,776;  257,965;    0,000
508,602; 1087,145;  261,651;    0,000
509,186; 1080,108;  259,215;    0,000
509,771; 1071,739;  256,574;    0,000
510,355; 1064,456;  252,093;    0,000
510,939; 1064,717;  255,325;    0,000
511,524; 1058,671;  254,618;    0,000
512,108; 1050,524;  252,347;    0,000
512,692; 1043,715;  253,454;    0,000
513,276; 1028,087;  246,569;    0,000
513,860; 1023,680;  251,344;    0,000
514,444; 1008,182;  245,930;    0,000
515,028; 1002,357;  250,616;    0,000
515,612;  986,252;  245,847;    0,000
516,196;  975,438;  246,873;    0,000
516,780;  965,234;  247,062;    0,000
517,364;  963,608;  249,719;    0,000
517,948;  963,403;  250,687;    0,000
518,532;  965,129;  254,527;    0,000
519,115;  965,475;  251,718;    0,000
519,699;  977,337;  259,501;    0,000
520,283;  982,891;  261,003;    0,000
520,867;  988,049;  260,760;    0,000
521,450;  996,731;  261,295;    0,000
522,034;  998,642;  261,988;    0,000
522,617; 1000,379;  262,194;    0,000
523,201;  999,659;  265,138;    0,000
523,784;  990,116;  258,227;    0,000
524,368;  987,779;  257,385;    0,000
524,951;  987,971;  258,779;    0,000
525,535;  980,367;  259,987;    0,000
526,118;  972,902;  259,487;    0,000
526,702;  970,511;  257,499;    0,000
527,285;  977,801;  261,842;    0,000
527,868;  980,844;  262,851;    0,000
528,451;  982,381;  263,683;    0,000
529,035;  983,178;  262,356;    0,000
529,618;  983,593;  261,786;    0,000
530,201;  991,361;  262,815;    0,000
530,784;  991,637;  263,076;    0,000
531,367;  993,868;  263,668;    0,000
531,950;  991,250;  263,956;    0,000
532,533;  994,338;  266,343;    0,000
533,116; 1002,061;  272,031;    0,000
533,699; 1002,742;  270,042;    0,000
534,282;  999,729;  265,975;    0,000
534,865; 1001,768;  265,056;    0,000
535,448;  994,285;  259,457;    0,000
536,030;  997,033;  260,227;    0,000
536,613;  992,667;  258,261;    0,000
537,196;  980,892;  250,764;    0,000
537,778;  983,580;  253,173;    0,000
538,361;  983,466;  255,563;    0,000
538,944;  984,329;  257,692;    0,000
539,526;  991,195;  264,423;    0,000
540,109;  995,276;  267,570;    0,000
540,691;  996,303;  267,620;    0,000
541,274; 1003,725;  271,078;    0,000
541,856; 1006,269;  271,170;    0,000
542,439; 1017,656;  275,525;    0,000
543,021; 1018,871;  273,547;    0,000
543,603; 1022,162;  272,220;    0,000
544,186; 1023,658;  268,326;    0,000
544,768; 1035,189;  270,325;    0,000
545,350; 1041,148;  269,367;    0,000
545,932; 1043,544;  268,234;    0,000
546,515; 1046,462;  265,942;    0,000
547,097; 1051,672;  265,698;    0,000
547,679; 1054,603;  267,069;    0,000
548,261; 1062,897;  271,534;    0,000
548,843; 1064,756;  269,930;    0,000
549,425; 1066,220;  269,030;    0,000
550,007; 1072,248;  271,009;    0,000
550,589; 1072,587;  270,362;    0,000
551,171; 1075,031;  270,839;    0,000
551,752; 1076,389;  265,105;    0,000
552,334; 1077,631;  260,576;    0,000
552,916; 1079,205;  261,238;    0,000
553,498; 1084,107;  260,454;    0,000
554,079; 1084,631;  256,369;    0,000
554,661; 1088,377;  255,012;    0,000
555,243; 1093,164;  255,472;    0,000
555,824; 1094,121;  255,996;    0,000
556,406; 1090,668;  254,216;    0,000
556,987; 1091,376;  251,841;    0,000
557,569; 1091,518;  251,488;    0,000
558,150; 1098,035;  256,323;    0,000
558,732; 1103,042;  259,544;    0,000
559,313; 1107,825;  259,289;    0,000
559,894; 1113,345;  257,912;    0,000
560,476; 1122,358;  258,311;    0,000
561,057; 1129,693;  258,022;    0,000
561,638; 1138,656;  261,086;    0,000
562,219; 1137,135;  254,565;    0,000
562,801; 1140,885;  252,044;    0,000
563,382; 1146,018;  252,728;    0,000
563,963; 1155,370;  255,558;    0,000
564,544; 1156,096;  254,343;    0,000
565,125; 1154,081;  251,563;    0,000
565,706; 1160,949;  252,219;    0,000
566,287; 1164,226;  253,565;    0,000
566,868; 1164,175;  250,874;    0,000
567,449; 1166,141;  251,190;    0,000
568,030; 1162,576;  248,971;    0,000
568,610; 1170,323;  251,542;    0,000
569,191; 1178,430;  254,743;    0,000
569,772; 1177,722;  252,371;    0,000
570,353; 1185,459;  250,584;    0,000
570,933; 1193,214;  251,704;    0,000
571,514; 1196,305;  248,239;    0,000
572,094; 1203,343;  247,208;    0,000
572,675; 1206,152;  244,184;    0,000
573,256; 1218,360;  246,226;    0,000
573,836; 1219,945;  243,062;    0,000
574,417; 1224,711;  245,329;    0,000
574,997; 1233,320;  250,444;    0,000
575,577; 1241,851;  252,240;    0,000
576,158; 1252,289;  255,950;    0,000
576,738; 1261,142;  261,059;    0,000
577,318; 1263,293;  260,621;    0,000
577,898; 1274,047;  264,233;    0,000
578,479; 1283,116;  264,338;    0,000
579,059; 1286,852;  259,650;    0,000
579,639; 1300,229;  260,547;    0,000
580,219; 1309,169;  258,823;    0,000
580,799; 1314,115;  254,051;    0,000
581,379; 1320,519;  249,415;    0,000
581,959; 1330,617;  247,527;    0,000
582,539; 1339,841;  249,237;    0,000
583,119; 1347,380;  247,717;    0,000
583,699; 1351,101;  247,045;    0,000
584,279; 1350,817;  245,597;    0,000
584,859; 1358,606;  250,336;    0,000
585,438; 1354,929;  251,422;    0,000
586,018; 1343,107;  251,537;    0,000
586,598; 1333,586;  250,061;    0,000
587,177; 1325,241;  250,660;    0,000
587,757; 1312,568;  251,752;    0,000
588,337; 1302,522;  253,612;    0,000
588,916; 1291,120;  252,747;    0,000
589,496; 1288,541;  251,183;    0,000
590,075; 1297,704;  254,184;    0,000
590,654; 1300,585;  253,285;    0,000
591,234; 1303,747;  253,104;    0,000
591,813; 1312,142;  253,109;    0,000
592,393; 1321,845;  250,467;    0,000
592,972; 1329,932;  248,901;    0,000
593,551; 1339,918;  253,295;    0,000
594,130; 1341,126;  252,929;    0,000
594,710; 1349,852;  256,140;    0,000
595,289; 1358,561;  256,350;    0,000
595,868; 1363,191;  254,909;    0,000
596,447; 1372,770;  257,732;    0,000
597,026; 1380,373;  259,218;    0,000
597,605; 1384,673;  259,170;    0,000
598,184; 1386,299;  253,643;    0,000
598,763; 1390,807;  253,969;    0,000
599,342; 1395,047;  254,811;    0,000
599,920; 1396,746;  254,227;    0,000
600,499; 1399,598;  257,179;    0,000
601,078; 1399,573;  254,611;    0,000
601,657; 1402,386;  254,015;    0,000
602,236; 1411,609;  258,225;    0,000
602,814; 1412,635;  255,697;    0,000
603,393; 1412,535;  254,089;    0,000
603,971; 1417,349;  257,703;    0,000
604,550; 1416,161;  255,885;    0,000
605,128; 1415,448;  255,768;    0,000
605,707; 1420,464;  258,010;    0,000
606,285; 1416,757;  256,517;    0,000
606,864; 1416,230;  259,545;    0,000
607,442; 1412,575;  261,543;    0,000
608,020; 1411,150;  262,527;    0,000
608,599; 1404,615;  261,153;    0,000
609,177; 1408,372;  267,088;    0,000
609,755; 1396,201;  262,899;    0,000
610,333; 1389,571;  260,668;    0,000
610,912; 1384,854;  261,503;    0,000
611,490; 1380,537;  261,456;    0,000
612,068; 1370,063;  257,011;    0,000
612,646; 1367,977;  259,401;    0,000
613,224; 1361,024;  258,192;    0,000
613,802; 1360,444;  259,362;    0,000
614,380; 1359,117;  262,417;    0,000
614,958; 1355,848;  261,604;    0,000
615,535; 1349,854;  259,556;    0,000
616,113; 1350,347;  263,270;    0,000
616,691; 1347,253;  260,499;    0,000
617,269; 1342,898;  257,929;    0,000
617,846; 1342,278;  258,597;    0,000
618,424; 1339,847;  257,153;    0,000
619,002; 1337,292;  257,412;    0,000
619,579; 1336,181;  258,127;    0,000
620,157; 1332,078;  259,895;    0,000
620,734; 1326,708;  263,295;    0,000
621,312; 1319,271;  263,716;    0,000
621,889; 1308,162;  264,051;    0,000
622,467; 1302,826;  264,926;    0,000
623,044; 1296,940;  265,122;    0,000
623,621; 1289,592;  266,501;    0,000
624,198; 1281,119;  262,823;    0,000
624,776; 1274,086;  259,284;    0,000
625,353; 1266,779;  258,854;    0,000
625,930; 1262,999;  258,825;    0,000
626,507; 1255,799;  260,944;    0,000
627,084; 1247,624;  259,324;    0,000
627,661; 1238,931;  257,543;    0,000
628,238; 1237,067;  258,200;    0,000
628,815; 1231,481;  258,318;    0,000
629,392; 1231,248;  257,186;    0,000
629,969; 1231,484;  258,527;    0,000
630,546; 1231,637;  257,854;    0,000
631,123; 1236,352;  259,866;    0,000
631,700; 1240,666;  262,100;    0,000
632,276; 1242,030;  261,257;    0,000
632,853; 1249,292;  265,053;    0,000
633,430; 1254,190;  268,348;    0,000
634,006; 1252,322;  268,139;    0,000
634,583; 1257,007;  271,242;    0,000
635,160; 1254,661;  271,058;    0,000
635,736; 1258,915;  270,849;    0,000
636,313; 1253,948;  269,367;    0,000
636,889; 1247,915;  264,866;    0,000
637,466; 1246,168;  266,076;    0,000
638,042; 1243,493;  265,493;    0,000
638,618; 1235,983;  260,950;    0,000
639,194; 1231,044;  257,652;    0,000
639,771; 1221,290;  254,357;    0,000
640,347; 1226,298;  258,360;    0,000
640,923; 1223,001;  258,692;    0,000
641,499; 1214,789;  256,268;    0,000
642,075; 1211,564;  255,886;    0,000
642,651; 1207,153;  257,593;    0,000
643,227; 1206,099;  260,449;    0,000
643,803; 1208,245;  265,937;    0,000
644,379; 1199,819;  264,418;    0,000
644,955; 1191,322;  264,528;    0,000
645,531; 1187,411;  266,136;    0,000
646,107; 1179,172;  266,310;    0,000
646,683; 1168,517;  261,630;    0,000
647,259; 1158,592;  260,637;    0,000
647,834; 1147,567;  258,141;    0,000
648,410; 1137,841;  253,875;    0,000
648,986; 1135,116;  253,129;    0,000
649,561; 1136,604;  254,212;    0,000
650,137; 1135,765;  252,304;    0,000
650,712; 1136,125;  252,114;    0,000
651,288; 1136,499;  253,099;    0,000
651,863; 1137,802;  253,534;    0,000
652,439; 1134,063;  253,932;    0,000
653,014; 1129,923;  255,795;    0,000
653,589; 1115,755;  250,301;    0,000
654,165; 1107,643;  250,942;    0,000
654,740; 1100,161;  252,702;    0,000
655,315; 1092,478;  249,966;    0,000
655,890; 1086,924;  252,999;    0,000
656,465; 1084,470;  253,017;    0,000
657,040; 1083,373;  248,400;    0,000
657,616; 1090,905;  246,150;    0,000
658,191; 1102,822;  247,818;    0,000
658,766; 1114,240;  249,874;    0,000
659,340; 1118,657;  248,099;    0,000
659,915; 1131,160;  246,527;    0,000
660,490; 1137,692;  245,980;    0,000
661,065; 1144,995;  247,975;    0,000
661,640; 1145,170;  247,348;    0,000
662,215; 1142,858;  245,919;    0,000
662,789; 1145,919;  246,881;    0,000
663,364; 1153,207;  248,277;    0,000
663,939; 1147,325;  243,695;    0,000
664,513; 1152,271;  246,045;    0,000
665,088; 1152,888;  245,948;    0,000
665,662; 1154,606;  249,638;    0,000
666,237; 1160,480;  251,479;    0,000
666,811; 1155,483;  246,859;    0,000
667,385; 1154,372;  248,055;    0,000
667,960; 1157,118;  247,302;    0,000
668,534; 1153,735;  245,849;    0,000
669,108; 1157,110;  245,342;    0,000
669,683; 1158,099;  242,561;    0,000
670,257; 1153,559;  238,549;    0,000
670,831; 1156,105;  237,278;    0,000
671,405; 1157,879;  236,535;    0,000
671,979; 1155,711;  235,432;    0,000
672,553; 1159,843;  234,939;    0,000
673,127; 1160,674;  236,778;    0,000
673,701; 1159,478;  234,465;    0,000
674,275; 1162,152;  234,272;    0,000
674,849; 1166,884;  236,680;    0,000
675,423; 1163,673;  235,712;    0,000
675,997; 1166,761;  237,219;    0,000
676,570; 1167,707;  236,931;    0,000
677,144; 1163,853;  234,048;    0,000
677,718; 1168,242;  239,117;    0,000
678,292; 1167,245;  241,727;    0,000
678,865; 1164,491;  241,063;    0,000
679,439; 1168,651;  242,267;    0,000
680,012; 1168,197;  241,816;    0,000
680,586; 1167,100;  241,838;    0,000
681,159; 1171,204;  242,501;    0,000
681,733; 1170,835;  242,400;    0,000
682,306; 1169,967;  239,225;    0,000
682,879; 1166,442;  240,657;    0,000
683,453; 1153,987;  240,089;    0,000
684,026; 1140,948;  242,606;    0,000
684,599; 1122,179;  242,043;    0,000
685,172; 1102,397;  244,760;    0,000
685,745; 1081,428;  244,524;    0,000
686,318; 1058,689;  245,944;    0,000
686,891; 1039,406;  244,057;    0,000
687,464; 1026,395;  245,022;    0,000
688,037; 1022,012;  244,939;    0,000
688,610; 1018,773;  243,183;    0,000
689,183; 1019,504;  242,404;    0,000
689,756; 1024,150;  242,387;    0,000
690,329; 1030,425;  240,662;    0,000
690,902; 1039,456;  243,891;    0,000
691,474; 1047,045;  241,976;    0,000
692,047; 1046,963;  238,492;    0,000
692,620; 1056,880;  243,035;    0,000
693,192; 1061,112;  242,863;    0,000
693,765; 1064,200;  242,311;    0,000
694,337; 1069,061;  241,948;    0,000
694,910; 1074,292;  242,407;    0,000
695,482; 1082,724;  244,929;    0,000
696,055; 1091,041;  246,681;    0,000
696,627; 1095,330;  247,162;    0,000
697,199; 1094,662;  241,539;    0,000
697,772; 1094,336;  239,887;    0,000
698,344; 1092,611;  240,238;    0,000
698,916; 1084,357;  235,678;    0,000
699,488; 1079,317;  233,481;    0,000
700,060; 1076,077;  232,502;    0,000
700,633; 1074,380;  229,934;    0,000
701,205; 1081,112;  233,210;    0,000
701,777; 1086,544;  236,673;    0,000
702,349; 1094,376;  237,645;    0,000
702,920; 1107,150;  239,883;    0,000
703,492; 1112,710;  238,511;    0,000
704,064; 1122,942;  237,125;    0,000
704,636; 1128,388;  237,060;    0,000
705,208; 1129,791;  234,116;    0,000
705,779; 1133,408;  230,690;    0,000
706,351; 1138,297;  230,592;    0,000
706,923; 1138,386;  226,774;    0,000
707,494; 1146,504;  228,590;    0,000
708,066; 1147,592;  228,357;    0,000
708,638; 1150,253;  226,571;    0,000
709,209; 1157,084;  229,691;    0,000
709,780; 1159,444;  228,023;    0,000
710,352; 1162,233;  225,869;    0,000
710,923; 1168,394;  230,893;    0,000
711,494; 1166,382;  227,040;    0,000
712,066; 1169,271;  230,141;    0,000
712,637; 1163,074;  228,793;    0,000
713,208; 1154,463;  229,881;    0,000
713,779; 1143,466;  232,612;    0,000
714,350; 1121,398;  234,140;    0,000
714,922; 1093,444;  232,259;    0,000
715,492; 1063,290;  234,523;    0,000
716,064; 1023,021;  232,506;    0,000
716,634;  985,225;  232,442;    0,000
717,205;  956,013;  235,004;    0,000
717,776;  930,402;  234,572;    0,000
718,347;  918,820;  236,812;    0,000
718,918;  913,866;  237,204;    0,000
719,489;  916,154;  238,098;    0,000
720,059;  926,343;  238,865;    0,000
720,630;  944,661;  240,833;    0,000
721,201;  959,349;  238,909;    0,000
721,771;  970,352;  240,538;    0,000
722,342;  976,770;  241,133;    0,000
722,912;  976,730;  239,642;    0,000
723,483;  972,605;  239,604;    0,000
724,053;  969,179;  241,219;    0,000
724,623;  960,997;  239,823;    0,000
725,194;  951,443;  239,468;    0,000
725,764;  948,846;  239,967;    0,000
726,334;  943,220;  238,789;    0,000
726,904;  940,580;  235,993;    0,000
727,475;  947,612;  239,583;    0,000
728,045;  951,344;  237,339;    0,000
728,615;  962,061;  237,634;    0,000
729,185;  973,364;  238,833;    0,000
729,755;  981,625;  234,822;    0,000
730,325;  996,485;  231,614;    0,000
730,895; 1017,874;  234,866;    0,000
731,465; 1034,877;  230,298;    0,000
732,034; 1055,580;  231,329;    0,000
732,604; 1076,554;  235,100;    0,000
733,174; 1093,572;  232,612;    0,000
733,744; 1112,718;  234,120;    0,000
734,313; 1131,078;  239,443;    0,000
734,883; 1140,895;  236,824;    0,000
735,453; 1152,541;  239,424;    0,000
736,022; 1159,616;  237,785;    0,000
736,592; 1167,119;  237,104;    0,000
737,161; 1180,751;  240,513;    0,000
737,731; 1188,039;  242,932;    0,000
738,300; 1192,785;  240,007;    0,000
738,869; 1201,374;  241,203;    0,000
739,439; 1202,892;  237,089;    0,000
740,008; 1212,238;  239,286;    0,000
740,577; 1215,283;  237,025;    0,000
741,146; 1217,901;  235,741;    0,000
741,715; 1222,233;  232,914;    0,000
742,284; 1231,021;  234,189;    0,000
742,853; 1235,424;  235,525;    0,000
743,422; 1243,713;  238,814;    0,000
743,991; 1247,031;  235,422;    0,000
744,560; 1252,734;  236,225;    0,000
745,129; 1255,323;  234,873;    0,000
745,698; 1260,169;  235,886;    0,000
746,267; 1261,186;  235,688;    0,000
746,836; 1261,232;  233,993;    0,000
747,404; 1265,378;  236,829;    0,000
747,973; 1268,367;  240,615;    0,000
748,542; 1268,627;  240,500;    0,000
749,110; 1267,230;  242,198;    0,000
749,679; 1263,562;  242,237;    0,000
750,247; 1256,036;  238,475;    0,000
750,816; 1258,454;  240,612;    0,000
751,384; 1254,728;  235,798;    0,000
751,952; 1252,017;  234,616;    0,000
752,521; 1248,706;  233,754;    0,000
753,089; 1248,566;  231,118;    0,000
753,657; 1248,469;  231,199;    0,000
754,225; 1252,315;  234,364;    0,000
754,794; 1249,604;  233,773;    0,000
755,362; 1241,450;  235,392;    0,000
755,930; 1226,696;  238,381;    0,000
756,498; 1193,285;  237,676;    0,000
757,066; 1143,759;  238,056;    0,000
757,634; 1086,919;  239,277;    0,000
758,202; 1015,451;  239,633;    0,000
758,769;  937,283;  242,254;    0,000
759,337;  853,714;  242,770;    0,000
759,905;  767,989;  237,417;    0,000
760,473;  710,449;  238,949;    0,000
761,041;  665,324;  236,451;    0,000
761,608;  639,184;  233,946;    0,000
762,176;  633,530;  234,538;    0,000
762,743;  640,176;  231,104;    0,000
763,311;  662,679;  227,092;    0,000
763,878;  707,539;  228,504;    0,000
764,446;  751,157;  225,817;    0,000
765,013;  806,031;  228,188;    0,000
765,581;  860,191;  229,577;    0,000
766,148;  915,380;  228,399;    0,000
766,715;  965,141;  228,065;    0,000
767,282; 1020,429;  232,754;    0,000
767,849; 1058,347;  231,726;    0,000
768,417; 1094,436;  233,958;    0,000
768,984; 1116,767;  230,974;    0,000
769,551; 1136,313;  230,177;    0,000
770,118; 1145,431;  227,122;    0,000
770,685; 1153,491;  225,045;    0,000
771,252; 1150,308;  220,230;    0,000
771,819; 1155,154;  221,265;    0,000
772,385; 1151,443;  218,347;    0,000
772,952; 1150,046;  217,637;    0,000
773,519; 1144,435;  216,848;    0,000
774,086; 1141,395;  217,023;    0,000
774,652; 1137,884;  217,362;    0,000
775,219; 1136,430;  218,477;    0,000
775,786; 1137,847;  220,400;    0,000
776,352; 1135,593;  221,159;    0,000
776,919; 1140,968;  230,688;    0,000
777,485; 1143,885;  232,504;    0,000
778,051; 1146,588;  235,978;    0,000
778,618; 1145,506;  236,768;    0,000
779,184; 1139,537;  233,546;    0,000
779,750; 1133,126;  232,536;    0,000
780,317; 1133,058;  234,851;    0,000
780,883; 1127,190;  229,439;    0,000
781,449; 1120,950;  228,476;    0,000
782,015; 1116,724;  229,833;    0,000
782,581; 1113,899;  232,019;    0,000
783,147; 1114,573;  236,782;    0,000
783,713; 1110,019;  238,406;    0,000
784,279; 1108,894;  241,429;    0,000
784,845; 1099,954;  240,041;    0,000
785,411; 1095,572;  243,343;    0,000
785,977; 1079,775;  238,812;    0,000
786,542; 1071,906;  240,275;    0,000
787,108; 1061,824;  240,417;    0,000
787,674; 1052,270;  239,449;    0,000
788,239; 1039,330;  237,405;    0,000
788,805; 1031,047;  238,727;    0,000
789,371; 1019,593;  237,589;    0,000
789,936; 1017,296;  238,830;    0,000
790,501; 1011,399;  238,814;    0,000
791,067; 1007,460;  237,998;    0,000
791,632;  997,834;  234,741;    0,000
792,198;  994,437;  235,129;    0,000
792,763;  989,655;  233,158;    0,000
793,328;  985,044;  231,396;    0,000
793,893;  974,418;  228,522;    0,000
794,458;  971,950;  225,048;    0,000
795,024;  967,196;  225,206;    0,000
795,589;  965,313;  225,859;    0,000
796,154;  958,788;  223,248;    0,000
796,719;  955,748;  223,590;    0,000
797,284;  954,451;  223,660;    0,000
797,848;  953,397;  224,112;    0,000
798,413;  946,614;  226,977;    0,000
798,978;  942,346;  229,005;    0,000
799,543;  935,678;  228,090;    0,000
800,108;  930,381;  230,094;    0,000
800,672;  928,827;  231,323;    0,000
801,237;  921,944;  231,008;    0,000
801,801;  921,533;  235,200;    0,000
802,366;  922,007;  234,892;    0,000
802,930;  918,882;  232,145;    0,000
803,495;  924,371;  238,275;    0,000
804,059;  925,988;  238,431;    0,000
804,624;  920,434;  237,756;    0,000
805,188;  921,737;  238,060;    0,000
805,752;  917,469;  236,802;    0,000
806,317;  908,129;  234,891;    0,000
806,881;  904,761;  236,899;    0,000
807,445;  889,535;  230,858;    0,000
808,009;  883,681;  231,987;    0,000
808,573;  876,827;  233,258;    0,000
809,137;  863,688;  233,104;    0,000
809,701;  853,819;  233,049;    0,000
810,265;  839,837;  231,842;    0,000
810,829;  819,068;  227,584;    0,000
811,393;  805,100;  228,269;    0,000
811,956;  782,374;  224,552;    0,000
812,520;  760,006;  221,271;    0,000
813,084;  735,295;  217,529;    0,000
813,647;  710,570;  215,274;    0,000
814,211;  692,087;  216,708;    0,000
814,775;  676,090;  217,350;    0,000
815,338;  661,850;  219,455;    0,000
815,902;  650,925;  219,377;    0,000
816,465;  645,099;  221,132;    0,000
817,029;  645,845;  224,254;    0,000
817,592;  647,691;  222,554;    0,000
818,155;  653,809;  226,002;    0,000
818,718;  660,226;  227,508;    0,000
819,282;  662,272;  225,424;    0,000
819,845;  666,346;  228,889;    0,000
820,408;  665,835;  229,960;    0,000
820,971;  667,038;  231,107;    0,000
821,534;  669,099;  236,602;    0,000
822,097;  663,688;  233,057;    0,000
822,660;  662,191;  234,239;    0,000
823,223;  663,251;  233,434;    0,000
823,786;  662,583;  230,461;    0,000
824,349;  667,643;  228,685;    0,000
824,911;  666,532;  223,821;    0,000
825,474;  666,792;  222,253;    0,000
826,037;  669,966;  224,450;    0,000
826,599;  673,569;  226,851;    0,000
827,162;  670,258;  227,611;    0,000
827,724;  665,576;  226,382;    0,000
828,287;  665,622;  228,899;    0,000
828,849;  663,653;  231,111;    0,000
829,412;  661,871;  231,830;    0,000
829,974;  660,617;  231,897;    0,000
830,536;  656,105;  227,686;    0,000
831,099;  656,951;  226,495;    0,000
831,661;  663,126;  229,581;    0,000
832,223;  662,343;  228,140;    0,000
832,785;  666,332;  226,943;    0,000
833,347;  668,407;  223,548;    0,000
833,909;  672,967;  221,826;    0,000
834,471;  681,213;  225,598;    0,000
835,033;  686,202;  226,557;    0,000
835,595;  691,348;  227,485;    0,000
836,157;  697,122;  229,588;    0,000
836,719;  699,397;  230,188;    0,000
837,281;  701,114;  230,429;    0,000
837,842;  705,246;  233,375;    0,000
838,404;  702,477;  230,963;    0,000
838,966;  703,052;  229,123;    0,000
839,527;  698,969;  223,262;    0,000
840,089;  692,830;  217,217;    0,000
840,650;  693,590;  217,485;    0,000
841,212;  692,964;  217,210;    0,000
841,773;  687,725;  212,860;    0,000
842,335;  685,771;  209,262;    0,000
842,896;  686,202;  209,367;    0,000
843,457;  688,548;  212,416;    0,000
844,018;  692,951;  218,072;    0,000
844,580;  694,826;  218,978;    0,000
845,141;  693,115;  217,723;    0,000
845,702;  691,275;  218,589;    0,000
846,263;  688,250;  221,644;    0,000
846,824;  683,167;  220,837;    0,000
847,385;  677,770;  220,625;    0,000
847,946;  668,673;  215,786;    0,000
848,507;  663,233;  218,610;    0,000
849,068;  655,494;  216,085;    0,000
849,628;  644,725;  211,449;    0,000
850,189;  635,628;  205,528;    0,000
850,750;  630,903;  206,811;    0,000
851,310;  624,620;  204,676;    0,000
851,871;  621,495;  205,028;    0,000
852,432;  610,698;  198,534;    0,000
852,992;  611,087;  203,449;    0,000
853,552;  611,890;  204,902;    0,000
854,113;  616,250;  209,414;    0,000
854,673;  615,967;  208,582;    0,000
855,234;  614,913;  208,415;    0,000
855,794;  621,159;  213,995;    0,000
856,354;  624,091;  213,423;    0,000
856,914;  625,423;  211,564;    0,000
857,474;  629,454;  212,196;    0,000
858,034;  631,272;  212,799;    0,000
858,595;  631,775;  215,144;    0,000
859,155;  630,149;  214,486;    0,000
859,714;  626,424;  209,880;    0,000
860,274;  627,327;  212,705;    0,000
860,834;  623,916;  212,379;    0,000
861,394;  622,148;  212,302;    0,000
861,954;  620,279;  211,598;    0,000
862,514;  620,311;  210,691;    0,000
863,073;  621,928;  213,722;    0,000
863,633;  614,417;  212,891;    0,000
864,192;  608,249;  210,689;    0,000
864,752;  603,723;  209,199;    0,000
865,311;  596,341;  208,288;    0,000
865,871;  590,072;  205,683;    0,000
866,430;  584,490;  204,574;    0,000
866,990;  579,821;  201,914;    0,000
867,549;  579,225;  201,525;    0,000
868,108;  579,228;  203,232;    0,000
868,667;  582,074;  204,611;    0,000
869,227;  586,605;  207,483;    0,000
869,786;  586,851;  209,208;    0,000
870,345;  586,654;  207,517;    0,000
870,904;  582,200;  203,678;    0,000
871,463;  579,603;  202,104;    0,000
872,022;  580,921;  202,946;    0,000
872,581;  574,895;  200,013;    0,000
873,140;  566,427;  194,955;    0,000
873,698;  564,387;  193,143;    0,000
874,257;  562,619;  193,468;    0,000
874,816;  562,519;  194,948;    0,000
875,374;  562,762;  195,803;    0,000
875,933;  556,376;  192,751;    0,000
876,492;  558,176;  195,932;    0,000
877,050;  556,719;  194,929;    0,000
877,609;  555,333;  195,626;    0,000
878,167;  551,119;  192,221;    0,000
878,725;  551,176;  194,023;    0,000
879,284;  551,776;  196,801;    0,000
879,842;  548,533;  194,839;    0,000
880,400;  546,747;  196,182;    0,000
880,958;  547,033;  196,298;    0,000
881,517;  546,847;  197,416;    0,000
882,075;  550,433;  201,511;    0,000
882,633;  548,105;  200,106;    0,000
883,191;  547,005;  199,201;    0,000
883,749;  549,790;  200,656;    0,000
884,307;  549,905;  202,009;    0,000
884,865;  550,333;  204,322;    0,000
885,422;  546,005;  202,072;    0,000
885,980;  544,648;  203,992;    0,000
886,538;  545,419;  205,883;    0,000
887,095;  541,305;  205,609;    0,000
887,653;  537,305;  204,133;    0,000
888,211;  538,462;  205,678;    0,000
888,768;  537,676;  207,231;    0,000
889,326;  537,376;  209,058;    0,000
889,883;  534,148;  207,308;    0,000
890,441;  529,648;  206,746;    0,000
890,998;  528,190;  209,438;    0,000
891,555;  530,090;  215,592;    0,000
892,112;  519,747;  210,616;    0,000
892,670;  515,105;  213,531;    0,000
893,227;  504,019;  211,803;    0,000
893,784;  491,562;  211,318;    0,000
894,341;  485,962;  214,995;    0,000
894,898;  471,662;  211,581;    0,000
895,455;  456,890;  210,065;    0,000
896,012;  443,690;  210,223;    0,000
896,569;  429,705;  207,255;    0,000
897,126;  424,176;  210,205;    0,000
897,682;  416,147;  210,839;    0,000
898,239;  405,619;  208,949;    0,000
898,796;  401,990;  210,133;    0,000
899,352;  399,833;  209,989;    0,000
899,909;  402,619;  211,693;    0,000
900,466;  405,205;  213,306;    0,000
901,022;  409,133;  214,936;    0,000
901,579;  413,033;  214,448;    0,000
902,135;  415,419;  212,922;    0,000
902,691;  422,305;  214,362;    0,000
903,248;  424,433;  213,655;    0,000
903,804;  424,476;  212,333;    0,000
904,360;  423,147;  211,808;    0,000
904,916;  418,305;  209,473;    0,000
905,472;  415,147;  210,672;    0,000
906,028;  410,919;  210,831;    0,000
906,584;  401,247;  208,488;    0,000
907,140;  393,662;  208,052;    0,000
907,696;  386,633;  207,505;    0,000
908,252;  381,776;  206,938;    0,000
908,808;  375,605;  205,415;    0,000
909,364;  373,848;  206,212;    0,000
909,920;  372,590;  207,193;    0,000
910,475;  369,105;  206,481;    0,000
911,031;  368,290;  206,818;    0,000
911,587;  365,190;  204,205;    0,000
912,142;  362,276;  202,702;    0,000
912,698;  360,919;  203,679;    0,000
913,253;  355,405;  199,116;    0,000
913,808;  352,490;  198,301;    0,000
914,364;  350,090;  196,593;    0,000
914,919;  351,819;  199,152;    0,000
915,474;  354,933;  203,879;    0,000
916,030;  353,962;  202,706;    0,000
916,585;  357,490;  202,881;    0,000
917,140;  360,719;  203,733;    0,000
917,695;  362,205;  200,922;    0,000
918,250;  366,247;  202,375;    0,000
918,805;  366,105;  197,023;    0,000
919,360;  368,590;  194,792;    0,000
919,915;  373,190;  197,021;    0,000
920,469;  377,462;  198,139;    0,000
921,024;  379,219;  198,038;    0,000
921,579;  380,147;  200,676;    0,000
922,134;  380,176;  200,002;    0,000
922,688;  380,405;  202,786;    0,000
923,243;  380,576;  205,515;    0,000
923,797;  377,933;  204,035;    0,000
924,352;  372,276;  204,322;    0,000
924,906;  368,533;  205,568;    0,000
925,461;  364,205;  205,309;    0,000
926,015;  354,119;  202,242;    0,000
926,569;  343,819;  200,212;    0,000
927,124;  334,919;  200,593;    0,000
927,678;  324,919;  202,859;    0,000
928,232;  312,462;  202,076;    0,000
928,786;  299,405;  201,123;    0,000
929,340;  289,205;  203,869;    0,000
929,894;  280,348;  205,491;    0,000
930,448;  272,290;  207,492;    0,000
931,002;  260,862;  207,396;    0,000
931,556;  252,148;  205,768;    0,000
932,110;  242,076;  201,841;    0,000
932,663;  235,805;  201,971;    0,000
933,217;  230,590;  200,338;    0,000
933,771;  228,747;  202,885;    0,000
934,324;  224,390;  202,963;    0,000
934,878;  219,062;  198,058;    0,000
935,432;  218,819;  199,585;    0,000
935,985;  222,890;  202,416;    0,000
936,538;  226,862;  204,139;    0,000
937,092;  227,633;  202,976;    0,000
937,645;  230,776;  200,878;    0,000
938,198;  238,662;  202,681;    0,000
938,752;  250,219;  208,393;    0,000
939,305;  253,505;  208,148;    0,000
939,858;  255,819;  208,961;    0,000
940,411;  257,919;  210,145;    0,000
940,964;  259,419;  210,751;    0,000
941,517;  258,933;  213,065;    0,000
942,070;  254,476;  212,641;    0,000
942,623;  247,905;  209,458;    0,000
943,176;  246,162;  209,573;    0,000
943,728;  243,276;  208,258;    0,000
944,281;  237,519;  204,818;    0,000
944,834;  236,219;  205,989;    0,000
945,387;  233,890;  203,591;    0,000
945,939;  230,548;  201,319;    0,000
946,492;  231,805;  201,376;    0,000
947,044;  232,405;  200,701;    0,000
947,597;  233,976;  200,166;    0,000
948,149;  236,033;  200,548;    0,000
948,701;  237,476;  199,722;    0,000
949,254;  241,405;  202,352;    0,000
949,806;  246,505;  203,593;    0,000
950,358;  246,505;  205,059;    0,000
950,910;  246,233;  204,118;    0,000
951,462;  244,776;  202,639;    0,000
952,014;  247,233;  204,869;    0,000
952,566;  244,348;  202,698;    0,000
953,118;  243,590;  201,818;    0,000
953,670;  242,162;  199,145;    0,000
954,222;  242,633;  196,979;    0,000
954,774;  242,619;  196,936;    0,000
955,326;  243,219;  197,469;    0,000
955,877;  243,705;  196,769;    0,000
956,429;  248,062;  200,098;    0,000
956,981;  250,162;  200,093;    0,000
957,532;  252,262;  201,002;    0,000
958,084;  252,962;  201,536;    0,000
958,635;  255,947;  204,051;    0,000
959,187;  258,848;  206,759;    0,000
959,738;  259,848;  207,136;    0,000
960,289;  262,990;  207,635;    0,000
960,840;  262,890;  205,733;    0,000
961,392;  267,162;  209,435;    0,000
961,943;  265,005;  205,886;    0,000
962,494;  266,190;  204,815;    0,000
963,045;  268,247;  202,815;    0,000
963,596;  270,062;  202,466;    0,000
964,147;  269,747;  199,959;    0,000
964,698;  272,590;  200,381;    0,000
965,249;  273,090;  198,676;    0,000
965,800;  276,490;  198,108;    0,000
966,350;  283,562;  199,271;    0,000
966,901;  285,276;  197,022;    0,000
967,452;  288,305;  194,105;    0,000
968,002;  292,376;  194,813;    0,000
968,553;  294,490;  195,785;    0,000
969,103;  296,333;  194,262;    0,000
969,654;  300,719;  197,573;    0,000
970,204;  295,519;  193,316;    0,000
970,755;  298,890;  198,635;    0,000
971,305;  294,405;  196,475;    0,000
971,855;  294,676;  197,563;    0,000
972,405;  294,033;  198,476;    0,000
972,956;  292,262;  198,329;    0,000
973,506;  287,019;  195,188;    0,000
974,056;  290,033;  199,055;    0,000
974,606;  287,462;  196,771;    0,000
975,156;  292,047;  202,006;    0,000
975,706;  290,219;  200,901;    0,000
976,255;  288,547;  198,085;    0,000
976,805;  284,390;  194,115;    0,000
977,355;  284,076;  193,511;    0,000
977,905;  281,762;  190,249;    0,000
978,454;  278,848;  186,708;    0,000
979,004;  279,262;  186,169;    0,000
979,554;  276,205;  181,323;    0,000
980,103;  279,205;  183,672;    0,000
980,653;  284,348;  187,109;    0,000
981,202;  289,133;  189,989;    0,000
981,751;  290,762;  190,483;    0,000
982,301;  294,419;  192,135;    0,000
982,850;  296,490;  192,056;    0,000
983,399;  299,390;  195,139;    0,000
983,948;  296,176;  192,845;    0,000
984,497;  297,533;  192,408;    0,000
985,047;  300,505;  192,701;    0,000
985,596;  300,533;  190,479;    0,000
986,144;  303,362;  191,313;    0,000
986,693;  301,333;  190,216;    0,000
987,242;  300,247;  189,391;    0,000
987,791;  301,862;  187,878;    0,000
988,340;  300,676;  187,055;    0,000
988,888;  298,962;  185,666;    0,000
989,437;  297,190;  187,833;    0,000
989,986;  294,690;  187,305;    0,000
990,534;  297,419;  189,511;    0,000
991,083;  297,262;  188,602;    0,000
991,631;  301,576;  194,181;    0,000
992,180;  298,119;  192,253;    0,000
992,728;  298,619;  194,729;    0,000
993,276;  299,405;  194,772;    0,000
993,825;  301,462;  197,686;    0,000
994,373;  300,348;  195,889;    0,000
994,921;  302,862;  198,619;    0,000
995,469;  298,047;  194,948;    0,000
996,017;  301,405;  197,799;    0,000
996,565;  297,862;  195,386;    0,000
997,113;  295,448;  194,233;    0,000
997,661;  294,662;  195,701;    0,000
998,209;  288,533;  193,923;    0,000
998,757;  288,933;  194,433;    0,000
999,304;  291,819;  198,521;    0,000
999,852;  288,376;  198,102;    0,000
1000,400;  289,705;  200,345;    0,000
1000,947;  292,133;  202,122;    0,000
1001,495;  289,833;  199,105;    0,000
1002,042;  292,233;  201,096;    0,000
1002,590;  290,619;  201,802;    0,000
1003,137;  288,605;  201,246;    0,000
1003,684;  291,790;  205,853;    0,000
1004,232;  291,519;  205,866;    0,000
1004,779;  289,290;  204,868;    0,000
1005,326;  289,819;  204,949;    0,000
1005,873;  290,705;  205,993;    0,000
1006,420;  291,919;  208,981;    0,000
1006,967;  284,848;  203,853;    0,000
1007,514;  280,833;  200,048;    0,000
1008,061;  279,219;  198,576;    0,000
1008,608;  279,590;  200,879;    0,000
1009,155;  281,733;  203,512;    0,000
1009,702;  277,848;  200,036;    0,000
1010,248;  276,176;  197,241;    0,000
1010,795;  281,219;  199,646;    0,000
1011,342;  284,547;  203,321;    0,000
1011,888;  286,147;  207,002;    0,000
1012,435;  286,105;  205,935;    0,000
1012,981;  282,647;  205,785;    0,000
1013,528;  287,619;  210,649;    0,000
1014,074;  287,376;  211,203;    0,000
1014,620;  287,133;  214,266;    0,000
1015,166;  285,705;  213,948;    0,000
1015,713;  284,576;  213,669;    0,000
1016,259;  282,519;  212,485;    0,000
1016,805;  277,790;  208,745;    0,000
1017,351;  276,448;  208,248;    0,000
1017,897;  271,233;  205,171;    0,000
1018,443;  268,247;  201,905;    0,000
1018,989;  266,190;  198,913;    0,000
1019,535;  263,519;  195,983;    0,000
1020,080;  262,747;  196,713;    0,000
1020,626;  266,819;  199,155;    0,000
1021,172;  262,062;  196,982;    0,000
1021,717;  261,619;  196,409;    0,000
1022,263;  263,605;  199,171;    0,000
1022,809;  263,476;  199,549;    0,000
1023,354;  266,233;  204,042;    0,000
1023,900;  261,333;  200,485;    0,000
1024,445;  258,276;  197,875;    0,000
1024,990;  257,948;  198,491;    0,000
1025,536;  257,633;  199,736;    0,000
1026,081;  254,233;  196,598;    0,000
1026,626;  250,905;  195,008;    0,000
1027,171;  247,048;  190,711;    0,000
1027,716;  250,447;  195,075;    0,000
1028,261;  247,833;  194,342;    0,000
1028,806;  248,190;  195,149;    0,000
1029,351;  247,290;  194,293;    0,000
1029,896;  251,419;  198,786;    0,000
1030,441;  248,276;  198,806;    0,000
1030,985;  246,390;  198,338;    0,000
1031,530;  244,962;  196,731;    0,000
1032,075;  242,633;  196,178;    0,000
1032,619;  246,648;  200,828;    0,000
1033,164;  244,533;  198,722;    0,000
1033,708;  239,033;  196,279;    0,000
1034,253;  239,690;  195,459;    0,000
1034,797;  240,062;  196,476;    0,000
1035,341;  239,119;  196,176;    0,000
1035,886;  239,033;  198,575;    0,000
1036,430;  232,762;  193,261;    0,000
1036,974;  237,733;  199,781;    0,000
1037,518;  237,719;  198,938;    0,000
1038,062;  237,747;  199,306;    0,000
1038,606;  236,576;  199,698;    0,000
1039,150;  233,947;  197,595;    0,000
1039,694;  235,262;  198,072;    0,000
1040,238;  233,376;  197,332;    0,000
1040,782;  227,962;  192,828;    0,000
1041,326;  228,776;  194,282;    0,000
1041,869;  231,662;  197,628;    0,000
1042,413;  232,790;  198,241;    0,000
1042,957;  234,519;  202,171;    0,000
1043,500;  234,190;  200,459;    0,000
1044,044;  236,176;  201,346;    0,000
1044,587;  236,048;  201,756;    0,000
1045,130;  238,390;  202,998;    0,000
1045,674;  234,190;  200,305;    0,000
1046,217;  234,490;  202,883;    0,000
1046,760;  233,890;  201,263;    0,000
1047,304;  230,305;  201,275;    0,000
1047,847;  229,819;  202,502;    0,000
1048,390;  232,947;  204,491;    0,000
1048,933;  230,433;  203,545;    0,000
1049,476;  233,447;  206,341;    0,000
1050,019;  234,490;  205,258;    0,000
1050,562;  233,690;  206,332;    0,000
1051,104;  237,362;  208,866;    0,000
1051,647;  240,848;  212,155;    0,000
1052,190;  242,819;  215,566;    0,000
1052,732;  239,633;  213,151;    0,000
1053,275;  235,590;  209,453;    0,000
1053,818;  233,076;  207,208;    0,000
1054,360;  233,362;  207,191;    0,000
1054,902;  235,476;  209,083;    0,000
1055,445;  229,319;  203,278;    0,000
1055,987;  226,833;  202,881;    0,000
1056,530;  228,862;  204,958;    0,000
1057,072;  229,705;  206,759;    0,000
1057,614;  223,776;  203,476;    0,000
1058,156;  225,633;  206,599;    0,000
1058,698;  221,833;  203,358;    0,000
1059,240;  223,848;  206,353;    0,000
1059,782;  222,490;  203,668;    0,000
1060,324;  221,333;  203,211;    0,000
1060,866;  222,033;  205,362;    0,000
1061,408;  226,905;  209,819;    0,000
1061,949;  227,276;  209,153;    0,000
1062,491;  226,476;  209,405;    0,000
1063,033;  227,076;  209,529;    0,000
1063,574;  224,862;  208,592;    0,000
1064,116;  222,176;  206,232;    0,000
1064,657;  220,776;  205,076;    0,000
1065,199;  222,133;  207,033;    0,000
1065,740;  221,390;  206,936;    0,000
1066,281;  224,062;  209,778;    0,000
1066,823;  217,247;  205,196;    0,000
1067,364;  219,319;  208,968;    0,000
1067,905;  222,833;  213,685;    0,000
1068,446;  221,747;  212,301;    0,000
1068,987;  220,690;  210,768;    0,000
1069,528;  218,676;  209,179;    0,000
1070,069;  220,333;  211,116;    0,000
1070,610;  221,833;  212,905;    0,000
1071,151;  219,719;  208,663;    0,000
1071,692;  218,305;  206,752;    0,000
1072,232;  218,490;  205,788;    0,000
1072,773;  216,633;  204,421;    0,000
1073,314;  214,376;  203,598;    0,000
1073,854;  210,733;  200,458;    0,000
1074,395;  211,033;  200,966;    0,000
1074,935;  209,962;  202,371;    0,000
1075,476;  209,062;  200,971;    0,000
1076,016;  209,462;  202,911;    0,000
1076,556;  209,090;  203,479;    0,000
1077,097;  210,205;  205,328;    0,000
1077,637;  210,433;  205,439;    0,000
1078,177;  210,848;  203,913;    0,000
1078,717;  212,562;  204,766;    0,000
1079,257;  214,776;  206,941;    0,000
1079,797;  217,133;  210,331;    0,000
1080,337;  217,176;  210,848;    0,000
1080,877;  214,933;  208,226;    0,000
1081,417;  214,176;  207,406;    0,000
1081,956;  213,633;  207,436;    0,000
1082,496;  210,733;  205,606;    0,000
1083,036;  208,890;  204,488;    0,000
1083,575;  203,476;  200,176;    0,000
1084,115;  200,390;  197,792;    0,000
1084,655;  201,447;  199,815;    0,000
1085,194;  201,747;  201,346;    0,000
1085,733;  202,690;  203,708;    0,000
1086,273;  205,105;  205,421;    0,000
1086,812;  209,433;  209,239;    0,000
1087,351;  212,119;  211,091;    0,000
1087,890;  212,219;  210,099;    0,000
1088,429;  213,747;  210,881;    0,000
1088,969;  211,476;  208,909;    0,000
1089,507;  213,933;  209,501;    0,000
1090,047;  212,890;  209,315;    0,000
1090,585;  205,233;  203,596;    0,000
1091,124;  206,048;  203,602;    0,000
1091,663;  207,905;  206,195;    0,000
1092,202;  209,719;  207,848;    0,000
1092,740;  210,176;  208,743;    0,000
1093,279;  205,090;  206,413;    0,000
1093,818;  205,419;  205,158;    0,000
1094,356;  209,333;  208,232;    0,000
1094,895;  206,848;  206,805;    0,000
1095,433;  205,319;  204,838;    0,000
1095,971;  204,105;  203,221;    0,000
1096,510;  203,319;  201,822;    0,000
1097,048;  201,947;  200,842;    0,000
1097,586;  200,976;  201,033;    0,000
1098,124;  199,076;  200,926;    0,000
1098,662;  202,105;  203,608;    0,000
1099,200;  203,247;  204,806;    0,000
1099,738;  201,076;  204,136;    0,000
1100,276;  204,390;  208,125;    0,000

