
Integration time [ms]:   0,050
Averaging Nr. [scans]: 10
Smoothing Nr. [pixels]: 3
Data measured with spectrometer [name]: 7516255SP
Wave   ;Sample   ;Dark     ;Reference
[nm]   ;[counts] ;[counts] ;[counts] 

177,229;  242,227;  248,380;    0,000
177,829;  240,882;  245,964;    0,000
178,430;  244,168;  248,373;    0,000
179,030;  243,717;  250,642;    0,000
179,630;  245,803;  253,151;    0,000
180,230;  243,517;  249,422;    0,000
180,830;  247,960;  253,310;    0,000
181,430;  244,589;  249,852;    0,000
182,030;  248,674;  255,348;    0,000
182,630;  246,260;  252,722;    0,000
183,230;  252,103;  256,133;    0,000
183,830;  250,888;  255,035;    0,000
184,430;  255,232;  260,918;    0,000
185,030;  256,377;  265,794;    0,000
185,629;  259,866;  273,281;    0,000
186,229;  259,811;  276,549;    0,000
186,829;  262,329;  284,113;    0,000
187,429;  257,632;  284,655;    0,000
188,029;  260,336;  293,060;    0,000
188,628;  259,982;  296,144;    0,000
189,228;  258,640;  298,286;    0,000
189,828;  257,300;  301,049;    0,000
190,428;  257,202;  304,825;    0,000
191,027;  256,075;  307,658;    0,000
191,627;  257,033;  310,938;    0,000
192,227;  254,062;  308,449;    0,000
192,826;  254,505;  309,456;    0,000
193,426;  251,904;  305,352;    0,000
194,025;  254,488;  304,269;    0,000
194,625;  250,342;  297,290;    0,000
195,224;  247,483;  291,007;    0,000
195,824;  243,053;  284,067;    0,000
196,423;  245,980;  284,210;    0,000
197,023;  236,250;  273,975;    0,000
197,622;  242,207;  277,388;    0,000
198,221;  236,821;  271,407;    0,000
198,821;  237,435;  270,071;    0,000
199,420;  236,834;  267,807;    0,000
200,019;  235,062;  265,581;    0,000
200,619;  235,162;  266,708;    0,000
201,218;  238,519;  269,307;    0,000
201,817;  231,762;  262,689;    0,000
202,416;  236,490;  269,320;    0,000
203,016;  235,305;  267,603;    0,000
203,615;  237,619;  269,316;    0,000
204,214;  239,062;  268,581;    0,000
204,813;  241,076;  269,417;    0,000
205,412;  241,747;  270,504;    0,000
206,011;  241,776;  271,061;    0,000
206,610;  233,704;  262,624;    0,000
207,209;  229,976;  260,034;    0,000
207,808;  230,933;  263,300;    0,000
208,407;  230,247;  265,099;    0,000
209,006;  223,519;  259,918;    0,000
209,605;  227,733;  263,852;    0,000
210,204;  225,776;  261,611;    0,000
210,803;  229,333;  263,763;    0,000
211,402;  233,647;  267,671;    0,000
212,001;  231,933;  265,171;    0,000
212,599;  233,633;  265,613;    0,000
213,198;  233,504;  264,736;    0,000
213,797;  227,733;  258,824;    0,000
214,396;  231,147;  262,628;    0,000
214,994;  228,247;  259,891;    0,000
215,593;  226,476;  258,874;    0,000
216,192;  225,247;  256,996;    0,000
216,790;  225,005;  258,235;    0,000
217,389;  229,033;  262,211;    0,000
217,988;  233,005;  265,618;    0,000
218,586;  228,876;  261,907;    0,000
219,185;  227,490;  262,217;    0,000
219,783;  226,376;  261,125;    0,000
220,382;  228,691;  263,945;    0,000
220,980;  230,991;  265,514;    0,000
221,579;  231,405;  265,657;    0,000
222,177;  230,233;  265,160;    0,000
222,776;  230,519;  265,216;    0,000
223,374;  233,905;  267,622;    0,000
223,972;  235,562;  268,758;    0,000
224,571;  235,490;  266,607;    0,000
225,169;  234,705;  266,183;    0,000
225,767;  231,590;  263,128;    0,000
226,366;  233,833;  264,716;    0,000
226,964;  233,862;  265,381;    0,000
227,562;  235,433;  264,573;    0,000
228,160;  237,719;  266,307;    0,000
228,758;  232,433;  263,099;    0,000
229,356;  233,904;  264,018;    0,000
229,955;  234,047;  263,643;    0,000
230,553;  232,162;  262,812;    0,000
231,151;  231,047;  260,474;    0,000
231,749;  228,876;  261,002;    0,000
232,347;  230,062;  261,471;    0,000
232,945;  232,890;  263,359;    0,000
233,543;  233,048;  263,245;    0,000
234,141;  228,105;  259,740;    0,000
234,739;  230,948;  260,786;    0,000
235,337;  236,319;  266,127;    0,000
235,934;  239,134;  268,009;    0,000
236,532;  238,362;  269,234;    0,000
237,130;  237,191;  269,912;    0,000
237,728;  238,291;  271,060;    0,000
238,326;  243,805;  277,127;    0,000
238,923;  239,062;  273,391;    0,000
239,521;  235,777;  270,594;    0,000
240,119;  228,848;  264,347;    0,000
240,716;  230,305;  263,320;    0,000
241,314;  228,033;  260,868;    0,000
241,912;  221,805;  255,973;    0,000
242,509;  225,705;  260,687;    0,000
243,107;  229,276;  265,030;    0,000
243,704;  228,676;  263,643;    0,000
244,302;  237,405;  270,353;    0,000
244,899;  234,290;  268,025;    0,000
245,497;  241,561;  272,907;    0,000
246,094;  239,333;  270,101;    0,000
246,692;  234,775;  264,182;    0,000
247,289;  229,247;  258,082;    0,000
247,887;  232,746;  261,108;    0,000
248,484;  230,818;  261,014;    0,000
249,081;  226,318;  256,929;    0,000
249,679;  223,847;  254,140;    0,000
250,276;  227,647;  257,478;    0,000
250,873;  227,304;  257,489;    0,000
251,470;  234,161;  264,509;    0,000
252,067;  228,047;  257,864;    0,000
252,665;  227,032;  256,501;    0,000
253,262;  230,847;  261,268;    0,000
253,859;  232,761;  264,566;    0,000
254,456;  234,490;  266,818;    0,000
255,053;  232,733;  264,252;    0,000
255,650;  232,861;  264,688;    0,000
256,247;  232,390;  266,436;    0,000
256,844;  229,646;  262,412;    0,000
257,441;  232,732;  265,346;    0,000
258,038;  223,903;  256,555;    0,000
258,635;  228,889;  259,146;    0,000
259,232;  228,160;  258,136;    0,000
259,829;  229,175;  258,534;    0,000
260,426;  231,632;  260,226;    0,000
261,022;  235,161;  265,937;    0,000
261,619;  233,390;  263,246;    0,000
262,216;  237,733;  267,582;    0,000
262,813;  230,904;  263,416;    0,000
263,409;  233,261;  266,190;    0,000
264,006;  229,047;  263,910;    0,000
264,603;  232,375;  266,458;    0,000
265,199;  231,804;  266,212;    0,000
265,796;  227,418;  262,638;    0,000
266,393;  235,575;  270,051;    0,000
266,989;  234,775;  268,950;    0,000
267,586;  235,832;  269,445;    0,000
268,182;  239,661;  271,811;    0,000
268,779;  238,332;  271,297;    0,000
269,375;  239,961;  272,459;    0,000
269,972;  238,833;  269,812;    0,000
270,568;  235,904;  267,102;    0,000
271,164;  234,233;  265,667;    0,000
271,761;  235,361;  266,079;    0,000
272,357;  231,461;  262,751;    0,000
272,953;  231,790;  262,804;    0,000
273,550;  233,175;  263,553;    0,000
274,146;  239,661;  268,732;    0,000
274,742;  236,790;  267,040;    0,000
275,338;  237,904;  266,953;    0,000
275,934;  239,690;  269,701;    0,000
276,531;  238,190;  268,661;    0,000
277,127;  235,918;  266,833;    0,000
277,723;  232,733;  263,505;    0,000
278,319;  227,119;  260,610;    0,000
278,915;  232,547;  265,702;    0,000
279,511;  226,919;  261,135;    0,000
280,107;  226,490;  261,223;    0,000
280,703;  227,876;  261,557;    0,000
281,299;  226,748;  260,275;    0,000
281,895;  226,133;  260,898;    0,000
282,491;  227,419;  261,025;    0,000
283,086;  227,548;  260,856;    0,000
283,682;  231,005;  265,149;    0,000
284,278;  230,419;  263,061;    0,000
284,874;  228,477;  262,221;    0,000
285,470;  234,191;  268,220;    0,000
286,065;  235,477;  268,543;    0,000
286,661;  238,191;  271,852;    0,000
287,257;  231,777;  266,128;    0,000
287,852;  236,120;  269,122;    0,000
288,448;  234,077;  268,736;    0,000
289,044;  234,148;  267,845;    0,000
289,639;  231,062;  264,108;    0,000
290,235;  228,277;  261,245;    0,000
290,830;  227,534;  258,763;    0,000
291,426;  225,648;  256,138;    0,000
292,021;  225,548;  256,966;    0,000
292,617;  223,020;  252,863;    0,000
293,212;  223,120;  253,676;    0,000
293,807;  221,448;  251,590;    0,000
294,403;  226,862;  257,176;    0,000
294,998;  226,991;  259,197;    0,000
295,593;  228,119;  259,471;    0,000
296,189;  228,005;  257,496;    0,000
296,784;  227,162;  257,071;    0,000
297,379;  229,262;  258,813;    0,000
297,974;  231,304;  260,428;    0,000
298,570;  220,476;  252,022;    0,000
299,165;  218,976;  250,170;    0,000
299,760;  217,490;  250,522;    0,000
300,355;  219,190;  254,216;    0,000
300,950;  221,190;  256,042;    0,000
301,545;  222,518;  256,334;    0,000
302,140;  221,690;  255,723;    0,000
302,735;  225,062;  257,293;    0,000
303,330;  226,347;  259,781;    0,000
303,925;  225,162;  258,770;    0,000
304,520;  224,791;  258,857;    0,000
305,115;  225,134;  260,265;    0,000
305,709;  223,405;  258,280;    0,000
306,304;  220,591;  256,457;    0,000
306,899;  220,276;  255,726;    0,000
307,494;  222,162;  257,195;    0,000
308,089;  219,590;  253,993;    0,000
308,683;  220,561;  252,905;    0,000
309,278;  216,890;  249,781;    0,000
309,873;  219,204;  253,016;    0,000
310,467;  225,547;  257,138;    0,000
311,062;  228,846;  259,829;    0,000
311,656;  226,575;  256,316;    0,000
312,251;  233,461;  262,499;    0,000
312,846;  230,618;  260,375;    0,000
313,440;  237,861;  265,566;    0,000
314,035;  233,503;  262,472;    0,000
314,629;  233,318;  264,036;    0,000
315,223;  234,475;  266,656;    0,000
315,818;  236,361;  268,905;    0,000
316,412;  230,718;  265,768;    0,000
317,006;  231,676;  266,867;    0,000
317,601;  226,733;  264,141;    0,000
318,195;  233,333;  268,583;    0,000
318,789;  231,705;  267,468;    0,000
319,384;  234,805;  267,626;    0,000
319,978;  230,491;  264,087;    0,000
320,572;  236,191;  266,422;    0,000
321,166;  238,805;  270,525;    0,000
321,760;  240,348;  271,064;    0,000
322,354;  237,705;  268,470;    0,000
322,948;  237,390;  266,232;    0,000
323,542;  231,619;  262,171;    0,000
324,136;  234,133;  263,390;    0,000
324,730;  232,747;  263,056;    0,000
325,324;  231,490;  258,546;    0,000
325,918;  229,747;  257,352;    0,000
326,512;  229,718;  257,260;    0,000
327,106;  231,418;  260,163;    0,000
327,700;  230,618;  258,710;    0,000
328,294;  233,389;  262,356;    0,000
328,887;  231,232;  260,123;    0,000
329,481;  230,175;  260,701;    0,000
330,075;  230,632;  260,312;    0,000
330,669;  228,146;  256,986;    0,000
331,262;  223,103;  252,608;    0,000
331,856;  223,774;  252,427;    0,000
332,449;  222,160;  249,961;    0,000
333,043;  227,046;  253,043;    0,000
333,637;  223,688;  248,985;    0,000
334,230;  222,374;  247,576;    0,000
334,824;  223,402;  248,912;    0,000
335,417;  225,145;  249,551;    0,000
336,011;  225,759;  249,473;    0,000
336,604;  219,416;  243,618;    0,000
337,197;  213,002;  239,138;    0,000
337,791;  213,959;  241,150;    0,000
338,384;  213,645;  240,818;    0,000
338,977;  212,131;  239,483;    0,000
339,571;  207,860;  236,886;    0,000
340,164;  204,417;  235,665;    0,000
340,757;  212,445;  242,840;    0,000
341,350;  213,331;  242,880;    0,000
341,943;  211,902;  240,909;    0,000
342,537;  209,016;  238,109;    0,000
343,130;  205,502;  235,497;    0,000
343,723;  208,230;  237,841;    0,000
344,316;  206,673;  235,469;    0,000
344,909;  204,059;  233,252;    0,000
345,502;  208,130;  237,004;    0,000
346,095;  209,459;  238,174;    0,000
346,688;  213,944;  242,384;    0,000
347,281;  215,101;  241,916;    0,000
347,874;  217,358;  241,894;    0,000
348,466;  225,087;  249,562;    0,000
349,059;  226,101;  251,577;    0,000
349,652;  219,444;  246,126;    0,000
350,245;  219,229;  245,978;    0,000
350,838;  217,058;  244,679;    0,000
351,430;  220,887;  248,030;    0,000
352,023;  216,644;  244,793;    0,000
352,616;  211,558;  239,239;    0,000
353,208;  211,173;  239,597;    0,000
353,801;  217,230;  244,491;    0,000
354,393;  219,101;  245,289;    0,000
354,986;  220,002;  246,962;    0,000
355,579;  218,630;  246,807;    0,000
356,171;  221,859;  251,427;    0,000
356,763;  225,873;  255,434;    0,000
357,356;  225,459;  253,357;    0,000
357,948;  222,416;  250,493;    0,000
358,541;  222,244;  251,416;    0,000
359,133;  222,873;  251,927;    0,000
359,725;  222,087;  249,585;    0,000
360,318;  219,373;  246,151;    0,000
360,910;  219,587;  244,801;    0,000
361,502;  219,030;  244,266;    0,000
362,094;  219,002;  244,408;    0,000
362,686;  213,887;  239,185;    0,000
363,279;  211,573;  236,351;    0,000
363,871;  214,873;  241,677;    0,000
364,463;  217,387;  243,320;    0,000
365,055;  215,302;  241,634;    0,000
365,647;  214,387;  242,106;    0,000
366,239;  212,002;  240,313;    0,000
366,831;  216,216;  244,023;    0,000
367,423;  219,316;  246,456;    0,000
368,015;  216,631;  243,213;    0,000
368,607;  216,173;  243,993;    0,000
369,198;  217,787;  246,042;    0,000
369,790;  217,187;  244,907;    0,000
370,382;  219,287;  245,851;    0,000
370,974;  216,273;  243,277;    0,000
371,565;  214,858;  242,518;    0,000
372,157;  212,644;  240,254;    0,000
372,749;  212,530;  240,618;    0,000
373,341;  206,359;  234,984;    0,000
373,932;  212,859;  241,550;    0,000
374,524;  214,030;  243,270;    0,000
375,115;  215,402;  244,316;    0,000
375,707;  219,673;  247,594;    0,000
376,298;  224,716;  251,831;    0,000
376,890;  226,730;  253,241;    0,000
377,481;  229,815;  256,774;    0,000
378,073;  223,787;  250,168;    0,000
378,664;  225,030;  251,531;    0,000
379,255;  224,901;  252,147;    0,000
379,847;  222,373;  250,619;    0,000
380,438;  218,044;  247,796;    0,000
381,029;  216,773;  246,816;    0,000
381,620;  214,330;  244,288;    0,000
382,212;  215,216;  245,604;    0,000
382,803;  213,788;  243,854;    0,000
383,394;  215,917;  243,309;    0,000
383,985;  214,088;  240,939;    0,000
384,576;  217,760;  244,389;    0,000
385,167;  214,789;  242,575;    0,000
385,758;  215,890;  245,111;    0,000
386,349;  211,991;  243,712;    0,000
386,940;  213,334;  247,607;    0,000
387,531;  213,279;  252,439;    0,000
388,122;  214,480;  256,493;    0,000
388,713;  209,395;  252,911;    0,000
389,304;  211,353;  255,892;    0,000
389,895;  211,340;  257,693;    0,000
390,485;  221,213;  268,292;    0,000
391,076;  216,771;  265,205;    0,000
391,667;  216,315;  266,486;    0,000
392,258;  214,015;  265,736;    0,000
392,848;  215,659;  269,066;    0,000
393,439;  213,173;  266,276;    0,000
394,030;  211,973;  264,516;    0,000
394,620;  207,458;  260,640;    0,000
395,211;  209,386;  261,828;    0,000
395,801;  209,714;  259,375;    0,000
396,392;  208,913;  257,600;    0,000
396,982;  209,912;  255,339;    0,000
397,573;  214,012;  260,162;    0,000
398,163;  216,768;  261,856;    0,000
398,753;  213,211;  256,216;    0,000
399,344;  213,068;  255,062;    0,000
399,934;  209,183;  251,800;    0,000
400,524;  211,598;  254,322;    0,000
401,115;  210,869;  255,700;    0,000
401,705;  206,841;  250,461;    0,000
402,295;  207,141;  250,508;    0,000
402,885;  206,041;  250,221;    0,000
403,475;  206,712;  250,185;    0,000
404,065;  209,084;  251,519;    0,000
404,655;  207,069;  249,740;    0,000
405,245;  206,555;  246,981;    0,000
405,835;  211,497;  253,258;    0,000
406,425;  213,211;  255,007;    0,000
407,015;  217,140;  256,960;    0,000
407,605;  220,440;  259,085;    0,000
408,195;  225,454;  262,687;    0,000
408,785;  228,554;  262,663;    0,000
409,375;  231,669;  265,668;    0,000
409,965;  234,140;  266,054;    0,000
410,554;  236,569;  266,891;    0,000
411,144;  241,726;  270,053;    0,000
411,734;  243,283;  270,397;    0,000
412,324;  242,697;  268,015;    0,000
412,913;  245,426;  268,299;    0,000
413,503;  250,968;  271,981;    0,000
414,092;  254,983;  272,467;    0,000
414,682;  257,497;  271,922;    0,000
415,271;  255,554;  268,236;    0,000
415,861;  256,782;  265,582;    0,000
416,450;  262,682;  268,319;    0,000
417,040;  266,782;  268,632;    0,000
417,629;  267,782;  266,235;    0,000
418,219;  268,596;  262,710;    0,000
418,808;  272,425;  261,422;    0,000
419,397;  276,296;  260,415;    0,000
419,986;  285,853;  265,594;    0,000
420,576;  293,010;  267,100;    0,000
421,165;  300,510;  268,885;    0,000
421,754;  304,710;  264,798;    0,000
422,343;  314,324;  267,904;    0,000
422,932;  318,096;  264,405;    0,000
423,521;  328,853;  265,502;    0,000
424,111;  330,953;  258,886;    0,000
424,700;  340,010;  259,019;    0,000
425,289;  347,653;  256,699;    0,000
425,878;  359,110;  259,392;    0,000
426,466;  364,381;  256,014;    0,000
427,055;  377,896;  258,622;    0,000
427,644;  388,539;  259,672;    0,000
428,233;  407,024;  264,083;    0,000
428,822;  415,639;  260,465;    0,000
429,411;  428,082;  260,750;    0,000
429,999;  439,267;  262,128;    0,000
430,588;  451,725;  260,544;    0,000
431,177;  464,325;  259,795;    0,000
431,765;  480,853;  260,753;    0,000
432,354;  491,696;  260,748;    0,000
432,943;  503,696;  258,111;    0,000
433,531;  517,625;  257,433;    0,000
434,120;  534,882;  254,996;    0,000
434,708;  553,382;  255,948;    0,000
435,297;  573,725;  258,099;    0,000
435,885;  582,853;  253,315;    0,000
436,474;  599,782;  248,315;    0,000
437,062;  617,953;  246,455;    0,000
437,650;  637,753;  246,416;    0,000
438,239;  656,695;  244,101;    0,000
438,827;  678,224;  241,945;    0,000
439,415;  699,495;  237,557;    0,000
440,003;  734,138;  241,542;    0,000
440,592;  764,009;  244,478;    0,000
441,180;  797,423;  248,450;    0,000
441,768;  830,209;  245,871;    0,000
442,356;  870,323;  249,567;    0,000
442,944;  907,766;  252,979;    0,000
443,532;  944,751;  255,930;    0,000
444,120;  972,365;  249,975;    0,000
444,708; 1006,708;  249,633;    0,000
445,296; 1033,922;  245,660;    0,000
445,884; 1062,637;  249,389;    0,000
446,472; 1084,694;  247,887;    0,000
447,060; 1102,994;  245,555;    0,000
447,647; 1117,179;  244,988;    0,000
448,235; 1132,622;  250,613;    0,000
448,823; 1133,865;  249,174;    0,000
449,411; 1134,865;  252,970;    0,000
449,998; 1124,694;  248,784;    0,000
450,586; 1106,565;  247,208;    0,000
451,173; 1092,465;  250,824;    0,000
451,761; 1068,879;  250,938;    0,000
452,349; 1039,979;  250,993;    0,000
452,936; 1012,451;  254,525;    0,000
453,524;  978,479;  252,976;    0,000
454,111;  944,450;  255,591;    0,000
454,698;  911,793;  258,294;    0,000
455,286;  873,636;  260,011;    0,000
455,873;  839,950;  261,239;    0,000
456,461;  808,321;  262,133;    0,000
457,048;  769,221;  258,698;    0,000
457,635;  742,778;  262,088;    0,000
458,222;  715,721;  263,287;    0,000
458,810;  693,278;  266,463;    0,000
459,397;  662,507;  257,990;    0,000
459,984;  641,449;  260,569;    0,000
460,571;  617,150;  256,247;    0,000
461,158;  599,478;  253,638;    0,000
461,745;  577,878;  251,734;    0,000
462,332;  563,978;  250,932;    0,000
462,919;  547,250;  248,508;    0,000
463,506;  543,650;  258,477;    0,000
464,093;  528,236;  255,464;    0,000
464,680;  517,535;  257,617;    0,000
465,267;  511,336;  263,426;    0,000
465,853;  499,821;  260,970;    0,000
466,440;  489,264;  262,505;    0,000
467,027;  480,050;  263,808;    0,000
467,614;  464,064;  259,329;    0,000
468,200;  459,021;  263,092;    0,000
468,787;  448,135;  261,737;    0,000
469,374;  438,192;  260,891;    0,000
469,960;  431,563;  263,888;    0,000
470,547;  420,177;  262,031;    0,000
471,133;  405,634;  257,284;    0,000
471,720;  398,406;  256,917;    0,000
472,306;  389,734;  257,644;    0,000
472,893;  381,477;  258,089;    0,000
473,479;  377,734;  261,826;    0,000
474,065;  369,120;  260,896;    0,000
474,652;  364,006;  262,724;    0,000
475,238;  361,863;  265,230;    0,000
475,824;  353,606;  260,808;    0,000
476,411;  350,177;  262,634;    0,000
476,997;  348,263;  264,502;    0,000
477,583;  341,548;  260,916;    0,000
478,169;  339,977;  261,974;    0,000
478,755;  339,191;  262,301;    0,000
479,341;  333,048;  258,638;    0,000
479,927;  332,520;  259,911;    0,000
480,513;  327,963;  255,849;    0,000
481,099;  323,020;  253,465;    0,000
481,685;  320,548;  253,179;    0,000
482,271;  318,420;  253,007;    0,000
482,857;  309,006;  246,490;    0,000
483,443;  313,306;  252,079;    0,000
484,028;  306,905;  247,732;    0,000
484,614;  304,877;  247,765;    0,000
485,200;  299,277;  243,439;    0,000
485,786;  296,506;  240,957;    0,000
486,371;  298,505;  242,400;    0,000
486,957;  303,934;  246,578;    0,000
487,543;  303,591;  246,197;    0,000
488,128;  306,934;  250,206;    0,000
488,714;  309,862;  251,568;    0,000
489,299;  319,291;  259,992;    0,000
489,885;  318,291;  258,537;    0,000
490,470;  318,176;  257,390;    0,000
491,055;  316,119;  254,111;    0,000
491,641;  318,362;  255,055;    0,000
492,226;  326,476;  260,389;    0,000
492,812;  321,976;  254,750;    0,000
493,397;  326,833;  254,919;    0,000
493,982;  332,062;  256,648;    0,000
494,567;  335,633;  256,162;    0,000
495,152;  340,690;  258,532;    0,000
495,738;  341,562;  254,086;    0,000
496,323;  342,448;  251,843;    0,000
496,908;  350,919;  254,065;    0,000
497,493;  349,648;  250,812;    0,000
498,078;  354,290;  251,709;    0,000
498,663;  357,662;  250,125;    0,000
499,248;  361,547;  248,506;    0,000
499,833;  365,804;  247,788;    0,000
500,417;  366,461;  242,695;    0,000
501,002;  373,233;  242,193;    0,000
501,587;  376,933;  238,914;    0,000
502,172;  384,419;  239,588;    0,000
502,757;  389,161;  238,194;    0,000
503,341;  398,890;  241,729;    0,000
503,926;  403,090;  240,716;    0,000
504,511;  409,676;  240,903;    0,000
505,095;  422,305;  248,322;    0,000
505,680;  430,119;  250,122;    0,000
506,264;  445,190;  257,819;    0,000
506,849;  442,533;  251,368;    0,000
507,433;  453,576;  253,752;    0,000
508,018;  463,633;  257,965;    0,000
508,602;  476,561;  261,651;    0,000
509,186;  481,818;  259,215;    0,000
509,771;  487,347;  256,574;    0,000
510,355;  490,233;  252,093;    0,000
510,939;  502,990;  255,325;    0,000
511,524;  508,518;  254,618;    0,000
512,108;  514,990;  252,347;    0,000
512,692;  521,690;  253,454;    0,000
513,276;  520,833;  246,569;    0,000
513,860;  530,976;  251,344;    0,000
514,444;  529,704;  245,930;    0,000
515,028;  539,247;  250,616;    0,000
515,612;  539,561;  245,847;    0,000
516,196;  544,476;  246,873;    0,000
516,780;  550,276;  247,062;    0,000
517,364;  556,118;  249,719;    0,000
517,948;  561,218;  250,687;    0,000
518,532;  569,289;  254,527;    0,000
519,115;  570,061;  251,718;    0,000
519,699;  582,089;  259,501;    0,000
520,283;  589,347;  261,003;    0,000
520,867;  590,732;  260,760;    0,000
521,450;  595,290;  261,295;    0,000
522,034;  601,047;  261,988;    0,000
522,617;  604,147;  262,194;    0,000
523,201;  609,704;  265,138;    0,000
523,784;  603,290;  258,227;    0,000
524,368;  602,547;  257,385;    0,000
524,951;  605,333;  258,779;    0,000
525,535;  609,561;  259,987;    0,000
526,118;  610,404;  259,487;    0,000
526,702;  611,418;  257,499;    0,000
527,285;  618,533;  261,842;    0,000
527,868;  623,618;  262,851;    0,000
528,451;  627,932;  263,683;    0,000
529,035;  631,261;  262,356;    0,000
529,618;  631,461;  261,786;    0,000
530,201;  634,675;  262,815;    0,000
530,784;  638,061;  263,076;    0,000
531,367;  642,104;  263,668;    0,000
531,950;  644,661;  263,956;    0,000
532,533;  649,932;  266,343;    0,000
533,116;  659,289;  272,031;    0,000
533,699;  659,789;  270,042;    0,000
534,282;  658,946;  265,975;    0,000
534,865;  660,989;  265,056;    0,000
535,448;  656,132;  259,457;    0,000
536,030;  659,218;  260,227;    0,000
536,613;  659,132;  258,261;    0,000
537,196;  652,575;  250,764;    0,000
537,778;  656,090;  253,173;    0,000
538,361;  661,075;  255,563;    0,000
538,944;  663,832;  257,692;    0,000
539,526;  674,746;  264,423;    0,000
540,109;  679,975;  267,570;    0,000
540,691;  681,846;  267,620;    0,000
541,274;  688,574;  271,078;    0,000
541,856;  692,646;  271,170;    0,000
542,439;  700,188;  275,525;    0,000
543,021;  699,488;  273,547;    0,000
543,603;  701,574;  272,220;    0,000
544,186;  701,617;  268,326;    0,000
544,768;  706,331;  270,325;    0,000
545,350;  706,102;  269,367;    0,000
545,932;  708,502;  268,234;    0,000
546,515;  708,160;  265,942;    0,000
547,097;  712,017;  265,698;    0,000
547,679;  714,931;  267,069;    0,000
548,261;  720,346;  271,534;    0,000
548,843;  721,646;  269,930;    0,000
549,425;  724,546;  269,030;    0,000
550,007;  726,189;  271,009;    0,000
550,589;  728,446;  270,362;    0,000
551,171;  731,032;  270,839;    0,000
551,752;  727,431;  265,105;    0,000
552,334;  724,317;  260,576;    0,000
552,916;  727,074;  261,238;    0,000
553,498;  727,245;  260,454;    0,000
554,079;  728,974;  256,369;    0,000
554,661;  729,389;  255,012;    0,000
555,243;  733,946;  255,472;    0,000
555,824;  737,089;  255,996;    0,000
556,406;  741,103;  254,216;    0,000
556,987;  741,746;  251,841;    0,000
557,569;  745,018;  251,488;    0,000
558,150;  750,246;  256,323;    0,000
558,732;  753,917;  259,544;    0,000
559,313;  755,174;  259,289;    0,000
559,894;  754,403;  257,912;    0,000
560,476;  757,231;  258,311;    0,000
561,057;  759,131;  258,022;    0,000
561,638;  765,317;  261,086;    0,000
562,219;  761,731;  254,565;    0,000
562,801;  763,217;  252,044;    0,000
563,382;  765,346;  252,728;    0,000
563,963;  771,574;  255,558;    0,000
564,544;  770,646;  254,343;    0,000
565,125;  768,960;  251,563;    0,000
565,706;  773,332;  252,219;    0,000
566,287;  777,789;  253,565;    0,000
566,868;  777,060;  250,874;    0,000
567,449;  780,631;  251,190;    0,000
568,030;  783,160;  248,971;    0,000
568,610;  789,489;  251,542;    0,000
569,191;  797,517;  254,743;    0,000
569,772;  797,688;  252,371;    0,000
570,353;  795,845;  250,584;    0,000
570,933;  801,774;  251,704;    0,000
571,514;  798,317;  248,239;    0,000
572,095;  796,103;  247,208;    0,000
572,675;  791,274;  244,184;    0,000
573,256;  795,431;  246,226;    0,000
573,836;  790,760;  243,062;    0,000
574,417;  795,374;  245,329;    0,000
574,997;  800,017;  250,444;    0,000
575,577;  804,717;  252,240;    0,000
576,158;  811,546;  255,950;    0,000
576,738;  821,560;  261,059;    0,000
577,318;  821,632;  260,621;    0,000
577,898;  830,703;  264,233;    0,000
578,479;  831,875;  264,338;    0,000
579,059;  828,403;  259,650;    0,000
579,639;  831,646;  260,547;    0,000
580,219;  831,903;  258,823;    0,000
580,799;  826,575;  254,051;    0,000
581,379;  823,489;  249,415;    0,000
581,959;  819,689;  247,527;    0,000
582,539;  824,274;  249,237;    0,000
583,119;  825,131;  247,717;    0,000
583,699;  826,546;  247,045;    0,000
584,279;  825,688;  245,597;    0,000
584,859;  831,546;  250,336;    0,000
585,438;  831,931;  251,422;    0,000
586,018;  832,545;  251,537;    0,000
586,598;  829,831;  250,061;    0,000
587,177;  830,874;  250,660;    0,000
587,757;  829,217;  251,752;    0,000
588,337;  827,760;  253,612;    0,000
588,916;  828,660;  252,747;    0,000
589,496;  826,660;  251,183;    0,000
590,075;  828,946;  254,184;    0,000
590,655;  828,218;  253,285;    0,000
591,234;  825,689;  253,104;    0,000
591,813;  824,861;  253,109;    0,000
592,393;  823,889;  250,467;    0,000
592,972;  819,032;  248,901;    0,000
593,551;  821,604;  253,295;    0,000
594,130;  818,818;  252,929;    0,000
594,710;  818,390;  256,140;    0,000
595,289;  817,532;  256,350;    0,000
595,868;  813,132;  254,909;    0,000
596,447;  815,060;  257,732;    0,000
597,026;  815,103;  259,218;    0,000
597,605;  812,846;  259,170;    0,000
598,184;  806,675;  253,643;    0,000
598,763;  807,032;  253,969;    0,000
599,342;  806,975;  254,811;    0,000
599,920;  804,117;  254,227;    0,000
600,499;  803,617;  257,179;    0,000
601,078;  796,217;  254,611;    0,000
601,657;  791,789;  254,015;    0,000
602,236;  791,074;  258,225;    0,000
602,814;  782,103;  255,697;    0,000
603,393;  773,617;  254,089;    0,000
603,971;  773,203;  257,703;    0,000
604,550;  767,975;  255,885;    0,000
605,128;  763,161;  255,768;    0,000
605,707;  761,061;  258,011;    0,000
606,285;  753,232;  256,517;    0,000
606,864;  751,275;  259,545;    0,000
607,442;  748,389;  261,543;    0,000
608,020;  743,132;  262,527;    0,000
608,599;  733,061;  261,153;    0,000
609,177;  734,790;  267,088;    0,000
609,755;  726,261;  262,899;    0,000
610,333;  721,233;  260,668;    0,000
610,912;  716,704;  261,503;    0,000
611,490;  709,933;  261,456;    0,000
612,068;  701,076;  257,011;    0,000
612,646;  699,248;  259,401;    0,000
613,224;  693,047;  258,192;    0,000
613,802;  690,362;  259,362;    0,000
614,380;  686,248;  262,417;    0,000
614,958;  684,377;  261,604;    0,000
615,535;  678,862;  259,556;    0,000
616,113;  679,376;  263,270;    0,000
616,691;  672,819;  260,499;    0,000
617,269;  665,905;  257,929;    0,000
617,846;  658,205;  258,597;    0,000
618,424;  654,690;  257,153;    0,000
619,002;  648,348;  257,412;    0,000
619,579;  644,119;  258,127;    0,000
620,157;  638,877;  259,895;    0,000
620,734;  634,277;  263,295;    0,000
621,312;  628,134;  263,716;    0,000
621,889;  625,548;  264,051;    0,000
622,467;  620,077;  264,926;    0,000
623,044;  613,205;  265,122;    0,000
623,621;  607,577;  266,501;    0,000
624,199;  601,705;  262,823;    0,000
624,776;  595,162;  259,284;    0,000
625,353;  591,377;  258,854;    0,000
625,930;  586,148;  258,825;    0,000
626,507;  584,148;  260,944;    0,000
627,084;  579,720;  259,324;    0,000
627,661;  575,020;  257,543;    0,000
628,238;  570,249;  258,200;    0,000
628,815;  565,077;  258,318;    0,000
629,392;  558,849;  257,186;    0,000
629,969;  555,935;  258,527;    0,000
630,546;  550,920;  257,854;    0,000
631,123;  550,706;  259,866;    0,000
631,700;  549,306;  262,100;    0,000
632,276;  544,121;  261,257;    0,000
632,853;  544,135;  265,053;    0,000
633,430;  544,221;  268,348;    0,000
634,006;  541,564;  268,139;    0,000
634,583;  539,393;  271,242;    0,000
635,160;  532,436;  271,058;    0,000
635,736;  528,507;  270,849;    0,000
636,313;  522,607;  269,367;    0,000
636,889;  516,779;  264,866;    0,000
637,465;  513,879;  266,076;    0,000
638,042;  509,550;  265,493;    0,000
638,618;  502,879;  260,950;    0,000
639,194;  496,650;  257,652;    0,000
639,771;  491,807;  254,357;    0,000
640,347;  492,421;  258,360;    0,000
640,923;  489,592;  258,692;    0,000
641,499;  483,192;  256,268;    0,000
642,075;  479,892;  255,886;    0,000
642,651;  477,606;  257,593;    0,000
643,227;  476,935;  260,449;    0,000
643,803;  477,920;  265,937;    0,000
644,379;  474,492;  264,418;    0,000
644,955;  470,578;  264,528;    0,000
645,531;  470,777;  266,136;    0,000
646,107;  466,606;  266,310;    0,000
646,683;  459,049;  261,630;    0,000
647,259;  453,749;  260,637;    0,000
647,834;  447,934;  258,141;    0,000
648,410;  441,120;  253,875;    0,000
648,986;  436,763;  253,129;    0,000
649,561;  433,263;  254,212;    0,000
650,137;  428,749;  252,304;    0,000
650,712;  424,663;  252,114;    0,000
651,288;  423,563;  253,099;    0,000
651,863;  422,063;  253,534;    0,000
652,439;  418,605;  253,932;    0,000
653,014;  417,748;  255,795;    0,000
653,589;  410,977;  250,301;    0,000
654,165;  407,791;  250,942;    0,000
654,740;  407,991;  252,702;    0,000
655,315;  401,762;  249,966;    0,000
655,890;  402,891;  252,999;    0,000
656,465;  400,405;  253,017;    0,000
657,040;  392,634;  248,400;    0,000
657,616;  387,477;  246,151;    0,000
658,191;  388,634;  247,818;    0,000
658,766;  387,576;  249,874;    0,000
659,340;  383,991;  248,099;    0,000
659,915;  379,291;  246,527;    0,000
660,490;  377,448;  245,980;    0,000
661,065;  377,648;  247,975;    0,000
661,640;  374,048;  247,348;    0,000
662,215;  369,876;  245,919;    0,000
662,789;  370,662;  246,881;    0,000
663,364;  370,990;  248,277;    0,000
663,939;  360,733;  243,695;    0,000
664,513;  362,347;  246,045;    0,000
665,088;  359,976;  245,948;    0,000
665,662;  361,990;  249,638;    0,000
666,237;  360,747;  251,479;    0,000
666,811;  353,647;  246,859;    0,000
667,386;  354,219;  248,055;    0,000
667,960;  353,819;  247,302;    0,000
668,534;  351,104;  245,849;    0,000
669,108;  350,990;  245,342;    0,000
669,683;  347,247;  242,561;    0,000
670,257;  341,961;  238,549;    0,000
670,831;  338,233;  237,278;    0,000
671,405;  335,718;  236,535;    0,000
671,979;  333,033;  235,432;    0,000
672,553;  328,747;  234,939;    0,000
673,127;  328,018;  236,778;    0,000
673,701;  323,604;  234,465;    0,000
674,275;  321,990;  234,272;    0,000
674,849;  325,261;  236,680;    0,000
675,423;  320,818;  235,712;    0,000
675,997;  321,775;  237,219;    0,000
676,570;  322,289;  236,931;    0,000
677,144;  317,575;  234,048;    0,000
677,718;  321,646;  239,117;    0,000
678,292;  322,604;  241,727;    0,000
678,865;  318,689;  241,063;    0,000
679,439;  320,046;  242,267;    0,000
680,012;  318,032;  241,816;    0,000
680,586;  315,103;  241,838;    0,000
681,159;  312,060;  242,501;    0,000
681,733;  309,489;  242,400;    0,000
682,306;  305,575;  239,225;    0,000
682,879;  305,117;  240,657;    0,000
683,453;  301,103;  240,089;    0,000
684,026;  300,074;  242,606;    0,000
684,599;  299,846;  242,043;    0,000
685,172;  303,546;  244,760;    0,000
685,745;  302,503;  244,524;    0,000
686,318;  304,003;  245,944;    0,000
686,891;  301,617;  244,057;    0,000
687,464;  303,531;  245,022;    0,000
688,037;  304,531;  244,939;    0,000
688,610;  300,817;  243,183;    0,000
689,183;  298,888;  242,404;    0,000
689,756;  300,588;  242,387;    0,000
690,329;  297,331;  240,662;    0,000
690,902;  299,203;  243,891;    0,000
691,474;  297,088;  241,976;    0,000
692,047;  293,517;  238,492;    0,000
692,620;  297,345;  243,035;    0,000
693,192;  297,474;  242,863;    0,000
693,765;  296,102;  242,311;    0,000
694,337;  294,231;  241,948;    0,000
694,910;  295,102;  242,407;    0,000
695,482;  297,374;  244,929;    0,000
696,055;  297,959;  246,681;    0,000
696,627;  297,816;  247,162;    0,000
697,199;  290,645;  241,539;    0,000
697,772;  287,216;  239,887;    0,000
698,344;  286,431;  240,238;    0,000
698,916;  281,073;  235,678;    0,000
699,488;  277,902;  233,481;    0,000
700,060;  276,402;  232,502;    0,000
700,633;  272,187;  229,934;    0,000
701,205;  272,802;  233,210;    0,000
701,777;  274,445;  236,673;    0,000
702,349;  274,202;  237,645;    0,000
702,920;  274,316;  239,883;    0,000
703,492;  269,916;  238,511;    0,000
704,064;  267,844;  237,125;    0,000
704,636;  266,330;  237,060;    0,000
705,208;  263,916;  234,116;    0,000
705,780;  258,644;  230,690;    0,000
706,351;  257,558;  230,592;    0,000
706,923;  253,944;  226,774;    0,000
707,494;  254,458;  228,590;    0,000
708,066;  251,987;  228,357;    0,000
708,637;  250,815;  226,571;    0,000
709,209;  254,858;  229,691;    0,000
709,780;  253,844;  228,023;    0,000
710,352;  254,544;  225,869;    0,000
710,923;  258,615;  230,893;    0,000
711,494;  255,830;  227,040;    0,000
712,066;  260,801;  230,141;    0,000
712,637;  258,429;  228,793;    0,000
713,208;  256,801;  229,881;    0,000
713,779;  258,529;  232,612;    0,000
714,350;  257,329;  234,140;    0,000
714,921;  254,701;  232,259;    0,000
715,493;  256,715;  234,523;    0,000
716,064;  252,272;  232,506;    0,000
716,634;  252,558;  232,442;    0,000
717,205;  256,158;  235,004;    0,000
717,776;  255,372;  234,572;    0,000
718,347;  257,086;  236,812;    0,000
718,918;  257,858;  237,204;    0,000
719,489;  257,372;  238,098;    0,000
720,059;  256,900;  238,865;    0,000
720,630;  257,372;  240,833;    0,000
721,201;  253,243;  238,909;    0,000
721,771;  253,457;  240,538;    0,000
722,342;  253,114;  241,133;    0,000
722,912;  250,557;  239,642;    0,000
723,483;  250,357;  239,604;    0,000
724,053;  251,671;  241,219;    0,000
724,623;  249,000;  239,823;    0,000
725,194;  249,700;  239,468;    0,000
725,764;  250,400;  239,967;    0,000
726,334;  249,814;  238,789;    0,000
726,904;  245,414;  235,993;    0,000
727,475;  247,614;  239,583;    0,000
728,045;  246,185;  237,339;    0,000
728,615;  248,085;  237,634;    0,000
729,185;  247,857;  238,833;    0,000
729,755;  244,414;  234,822;    0,000
730,325;  240,014;  231,614;    0,000
730,895;  243,299;  234,866;    0,000
731,465;  239,271;  230,298;    0,000
732,034;  240,999;  231,329;    0,000
732,604;  243,271;  235,100;    0,000
733,174;  241,428;  232,612;    0,000
733,744;  242,814;  234,120;    0,000
734,313;  248,756;  239,443;    0,000
734,883;  247,028;  236,824;    0,000
735,453;  250,456;  239,424;    0,000
736,022;  247,470;  237,785;    0,000
736,592;  245,756;  237,104;    0,000
737,161;  248,442;  240,513;    0,000
737,731;  248,942;  242,932;    0,000
738,300;  244,299;  240,007;    0,000
738,869;  245,985;  241,203;    0,000
739,439;  241,999;  237,089;    0,000
740,008;  243,356;  239,286;    0,000
740,577;  241,856;  237,025;    0,000
741,146;  240,384;  235,741;    0,000
741,715;  239,784;  232,914;    0,000
742,284;  241,570;  234,189;    0,000
742,853;  240,299;  235,525;    0,000
743,422;  242,041;  238,814;    0,000
743,991;  238,656;  235,422;    0,000
744,560;  238,670;  236,225;    0,000
745,129;  238,513;  234,873;    0,000
745,698;  238,270;  235,886;    0,000
746,267;  236,898;  235,688;    0,000
746,836;  235,027;  233,993;    0,000
747,404;  236,970;  236,829;    0,000
747,973;  240,241;  240,615;    0,000
748,541;  238,227;  240,500;    0,000
749,110;  237,469;  242,198;    0,000
749,679;  234,612;  242,237;    0,000
750,247;  230,555;  238,475;    0,000
750,816;  233,826;  240,612;    0,000
751,384;  228,684;  235,798;    0,000
751,952;  227,798;  234,616;    0,000
752,521;  228,569;  233,754;    0,000
753,089;  225,155;  231,119;    0,000
753,657;  226,441;  231,199;    0,000
754,225;  231,255;  234,364;    0,000
754,794;  230,712;  233,773;    0,000
755,362;  231,712;  235,392;    0,000
755,930;  234,340;  238,381;    0,000
756,498;  232,740;  237,676;    0,000
757,066;  234,140;  238,056;    0,000
757,634;  236,640;  239,277;    0,000
758,202;  234,440;  239,633;    0,000
758,769;  236,312;  242,254;    0,000
759,337;  237,912;  242,770;    0,000
759,905;  232,583;  237,417;    0,000
760,473;  235,683;  238,949;    0,000
761,041;  234,769;  236,451;    0,000
761,608;  231,754;  233,946;    0,000
762,176;  232,711;  234,538;    0,000
762,743;  229,440;  231,104;    0,000
763,311;  226,640;  227,092;    0,000
763,878;  227,383;  228,504;    0,000
764,446;  223,668;  225,817;    0,000
765,013;  224,911;  228,188;    0,000
765,581;  226,354;  229,577;    0,000
766,148;  225,011;  228,399;    0,000
766,715;  224,140;  228,065;    0,000
767,282;  226,039;  232,754;    0,000
767,850;  224,468;  231,726;    0,000
768,417;  225,368;  233,958;    0,000
768,984;  221,654;  230,974;    0,000
769,551;  220,282;  230,177;    0,000
770,118;  219,411;  227,122;    0,000
770,685;  218,239;  225,045;    0,000
771,252;  211,939;  220,230;    0,000
771,819;  213,468;  221,265;    0,000
772,385;  210,768;  218,347;    0,000
772,952;  209,739;  217,637;    0,000
773,519;  208,253;  216,848;    0,000
774,086;  205,682;  217,023;    0,000
774,652;  204,682;  217,362;    0,000
775,219;  207,582;  218,477;    0,000
775,786;  210,167;  220,400;    0,000
776,352;  211,696;  221,159;    0,000
776,919;  221,167;  230,688;    0,000
777,485;  223,410;  232,504;    0,000
778,051;  226,567;  235,978;    0,000
778,618;  227,624;  236,768;    0,000
779,184;  225,139;  233,546;    0,000
779,750;  223,767;  232,536;    0,000
780,317;  225,453;  234,851;    0,000
780,883;  220,796;  229,439;    0,000
781,449;  219,210;  228,476;    0,000
782,015;  221,095;  229,833;    0,000
782,581;  222,810;  232,019;    0,000
783,147;  226,781;  236,782;    0,000
783,713;  227,252;  238,406;    0,000
784,279;  229,510;  241,429;    0,000
784,845;  229,352;  240,041;    0,000
785,411;  233,595;  243,343;    0,000
785,977;  230,038;  238,812;    0,000
786,542;  230,167;  240,275;    0,000
787,108;  231,481;  240,417;    0,000
787,674;  232,266;  239,449;    0,000
788,239;  230,995;  237,405;    0,000
788,805;  228,609;  238,727;    0,000
789,371;  227,095;  237,589;    0,000
789,936;  227,723;  238,830;    0,000
790,501;  228,466;  238,814;    0,000
791,067;  226,338;  237,998;    0,000
791,632;  222,838;  234,741;    0,000
792,198;  222,738;  235,129;    0,000
792,763;  222,080;  233,158;    0,000
793,328;  218,080;  231,396;    0,000
793,893;  215,209;  228,522;    0,000
794,458;  212,637;  225,048;    0,000
795,024;  212,780;  225,206;    0,000
795,589;  212,594;  225,859;    0,000
796,154;  210,266;  223,248;    0,000
796,719;  211,237;  223,590;    0,000
797,284;  212,509;  223,660;    0,000
797,848;  212,451;  224,112;    0,000
798,413;  215,523;  226,977;    0,000
798,978;  217,751;  229,005;    0,000
799,543;  216,251;  228,090;    0,000
800,108;  218,051;  230,094;    0,000
800,672;  219,137;  231,323;    0,000
801,237;  219,494;  231,008;    0,000
801,801;  224,308;  235,200;    0,000
802,366;  222,037;  234,892;    0,000
802,930;  219,280;  232,145;    0,000
803,495;  224,522;  238,275;    0,000
804,059;  225,137;  238,431;    0,000
804,624;  224,751;  237,756;    0,000
805,188;  223,308;  238,060;    0,000
805,752;  222,179;  236,802;    0,000
806,317;  220,522;  234,891;    0,000
806,881;  222,465;  236,899;    0,000
807,445;  218,208;  230,858;    0,000
808,009;  220,208;  231,987;    0,000
808,573;  220,193;  233,258;    0,000
809,137;  222,450;  233,104;    0,000
809,701;  222,536;  233,049;    0,000
810,265;  222,036;  231,842;    0,000
810,829;  218,965;  227,584;    0,000
811,393;  217,950;  228,269;    0,000
811,956;  213,107;  224,552;    0,000
812,520;  211,293;  221,271;    0,000
813,084;  206,779;  217,529;    0,000
813,647;  204,436;  215,274;    0,000
814,211;  205,507;  216,708;    0,000
814,775;  204,607;  217,350;    0,000
815,338;  207,636;  219,455;    0,000
815,902;  208,664;  219,377;    0,000
816,465;  209,578;  221,132;    0,000
817,028;  212,293;  224,254;    0,000
817,592;  210,521;  222,554;    0,000
818,155;  213,635;  226,002;    0,000
818,718;  216,450;  227,508;    0,000
819,282;  214,121;  225,424;    0,000
819,845;  216,850;  228,889;    0,000
820,408;  216,507;  229,960;    0,000
820,971;  217,635;  231,107;    0,000
821,534;  222,207;  236,602;    0,000
822,097;  219,492;  233,057;    0,000
822,660;  219,692;  234,239;    0,000
823,223;  219,278;  233,434;    0,000
823,786;  216,064;  230,461;    0,000
824,348;  217,264;  228,685;    0,000
824,911;  213,864;  223,821;    0,000
825,474;  212,735;  222,253;    0,000
826,037;  215,692;  224,450;    0,000
826,599;  218,492;  226,851;    0,000
827,162;  219,878;  227,611;    0,000
827,724;  219,420;  226,382;    0,000
828,287;  219,692;  228,899;    0,000
828,849;  220,792;  231,111;    0,000
829,412;  221,335;  231,830;    0,000
829,974;  219,249;  231,897;    0,000
830,536;  214,249;  227,686;    0,000
831,099;  212,406;  226,495;    0,000
831,661;  213,763;  229,581;    0,000
832,223;  212,977;  228,140;    0,000
832,785;  210,934;  226,943;    0,000
833,347;  208,734;  223,548;    0,000
833,909;  207,863;  221,826;    0,000
834,471;  212,777;  225,598;    0,000
835,033;  213,791;  226,557;    0,000
835,595;  215,548;  227,485;    0,000
836,157;  218,163;  229,588;    0,000
836,719;  219,820;  230,188;    0,000
837,281;  220,263;  230,429;    0,000
837,842;  222,691;  233,375;    0,000
838,404;  218,791;  230,963;    0,000
838,966;  216,362;  229,123;    0,000
839,527;  210,562;  223,262;    0,000
840,089;  203,348;  217,217;    0,000
840,650;  204,619;  217,485;    0,000
841,212;  203,162;  217,210;    0,000
841,773;  199,048;  212,860;    0,000
842,335;  197,948;  209,262;    0,000
842,896;  198,419;  209,367;    0,000
843,457;  200,805;  212,416;    0,000
844,018;  206,391;  218,072;    0,000
844,580;  206,262;  218,978;    0,000
845,141;  206,005;  217,723;    0,000
845,702;  208,876;  218,589;    0,000
846,263;  210,076;  221,644;    0,000
846,824;  209,690;  220,837;    0,000
847,385;  211,676;  220,625;    0,000
847,946;  207,733;  215,786;    0,000
848,507;  210,605;  218,610;    0,000
849,068;  207,133;  216,085;    0,000
849,628;  201,419;  211,449;    0,000
850,189;  196,919;  205,528;    0,000
850,750;  197,133;  206,811;    0,000
851,310;  193,433;  204,676;    0,000
851,871;  193,119;  205,028;    0,000
852,432;  186,919;  198,534;    0,000
852,992;  192,676;  203,449;    0,000
853,552;  194,276;  204,902;    0,000
854,113;  197,176;  209,414;    0,000
854,673;  197,233;  208,582;    0,000
855,234;  196,847;  208,415;    0,000
855,794;  205,461;  213,995;    0,000
856,354;  205,518;  213,423;    0,000
856,914;  203,347;  211,564;    0,000
857,474;  203,990;  212,196;    0,000
858,034;  205,332;  212,799;    0,000
858,595;  207,347;  215,144;    0,000
859,155;  206,932;  214,486;    0,000
859,714;  199,904;  209,880;    0,000
860,274;  201,332;  212,705;    0,000
860,834;  201,704;  212,379;    0,000
861,394;  202,418;  212,302;    0,000
861,954;  201,332;  211,598;    0,000
862,514;  199,475;  210,691;    0,000
863,073;  201,532;  213,722;    0,000
863,633;  199,918;  212,891;    0,000
864,192;  197,903;  210,689;    0,000
864,752;  195,346;  209,199;    0,000
865,311;  193,575;  208,288;    0,000
865,871;  192,032;  205,683;    0,000
866,430;  191,417;  204,574;    0,000
866,990;  190,575;  201,914;    0,000
867,549;  190,817;  201,525;    0,000
868,108;  192,389;  203,232;    0,000
868,667;  194,160;  204,611;    0,000
869,227;  196,917;  207,483;    0,000
869,786;  198,460;  209,208;    0,000
870,345;  198,489;  207,517;    0,000
870,904;  194,588;  203,678;    0,000
871,463;  194,617;  202,104;    0,000
872,022;  196,846;  202,946;    0,000
872,581;  193,660;  200,013;    0,000
873,140;  188,445;  194,955;    0,000
873,698;  185,388;  193,143;    0,000
874,257;  185,674;  193,468;    0,000
874,816;  187,188;  194,948;    0,000
875,374;  187,931;  195,803;    0,000
875,933;  184,174;  192,751;    0,000
876,492;  189,017;  195,932;    0,000
877,050;  189,117;  194,929;    0,000
877,609;  190,988;  195,626;    0,000
878,167;  186,717;  192,221;    0,000
878,725;  187,117;  194,023;    0,000
879,284;  188,303;  196,801;    0,000
879,842;  186,688;  194,839;    0,000
880,400;  186,731;  196,182;    0,000
880,958;  186,374;  196,298;    0,000
881,517;  187,431;  197,416;    0,000
882,075;  192,174;  201,511;    0,000
882,633;  192,660;  200,106;    0,000
883,191;  192,831;  199,201;    0,000
883,749;  194,117;  200,656;    0,000
884,307;  195,403;  202,009;    0,000
884,864;  198,117;  204,322;    0,000
885,422;  195,388;  202,072;    0,000
885,980;  195,902;  203,992;    0,000
886,538;  197,860;  205,883;    0,000
887,095;  196,731;  205,609;    0,000
887,653;  195,074;  204,133;    0,000
888,211;  197,660;  205,678;    0,000
888,768;  199,074;  207,231;    0,000
889,326;  201,631;  209,058;    0,000
889,883;  201,574;  207,308;    0,000
890,441;  200,631;  206,746;    0,000
890,998;  203,817;  209,438;    0,000
891,555;  210,845;  215,592;    0,000
892,112;  205,017;  210,616;    0,000
892,670;  208,374;  213,531;    0,000
893,227;  206,945;  211,803;    0,000
893,784;  206,503;  211,318;    0,000
894,341;  210,003;  214,995;    0,000
894,898;  206,988;  211,581;    0,000
895,455;  204,331;  210,065;    0,000
896,012;  205,045;  210,223;    0,000
896,569;  202,560;  207,255;    0,000
897,126;  204,474;  210,205;    0,000
897,682;  204,631;  210,839;    0,000
898,239;  202,888;  208,949;    0,000
898,796;  203,645;  210,133;    0,000
899,352;  204,388;  209,989;    0,000
899,909;  205,560;  211,693;    0,000
900,466;  206,045;  213,306;    0,000
901,022;  209,045;  214,936;    0,000
901,579;  208,402;  214,448;    0,000
902,135;  205,931;  212,922;    0,000
902,691;  207,745;  214,362;    0,000
903,248;  206,403;  213,655;    0,000
903,804;  205,517;  212,333;    0,000
904,360;  204,317;  211,808;    0,000
904,916;  202,945;  209,473;    0,000
905,472;  203,545;  210,672;    0,000
906,028;  204,045;  210,831;    0,000
906,584;  201,131;  208,488;    0,000
907,140;  200,517;  208,052;    0,000
907,696;  199,217;  207,505;    0,000
908,252;  200,060;  206,938;    0,000
908,808;  195,988;  205,415;    0,000
909,364;  199,074;  206,212;    0,000
909,920;  199,717;  207,193;    0,000
910,475;  198,717;  206,481;    0,000
911,031;  200,017;  206,818;    0,000
911,587;  198,717;  204,205;    0,000
912,142;  195,945;  202,702;    0,000
912,698;  197,045;  203,679;    0,000
913,253;  190,302;  199,116;    0,000
913,808;  190,517;  198,301;    0,000
914,364;  189,331;  196,593;    0,000
914,919;  191,460;  199,152;    0,000
915,474;  195,017;  203,879;    0,000
916,030;  193,345;  202,706;    0,000
916,585;  194,017;  202,881;    0,000
917,140;  196,417;  203,733;    0,000
917,695;  193,931;  200,922;    0,000
918,250;  193,717;  202,375;    0,000
918,805;  188,860;  197,023;    0,000
919,360;  186,617;  194,792;    0,000
919,915;  189,045;  197,021;    0,000
920,469;  189,174;  198,139;    0,000
921,024;  189,374;  198,038;    0,000
921,579;  190,588;  200,676;    0,000
922,134;  192,503;  200,002;    0,000
922,688;  195,145;  202,786;    0,000
923,243;  197,645;  205,515;    0,000
923,797;  196,845;  204,035;    0,000
924,352;  196,303;  204,322;    0,000
924,906;  195,731;  205,568;    0,000
925,461;  196,631;  205,309;    0,000
926,015;  192,302;  202,242;    0,000
926,569;  188,160;  200,212;    0,000
927,124;  188,974;  200,593;    0,000
927,678;  190,660;  202,859;    0,000
928,232;  190,317;  202,076;    0,000
928,786;  191,117;  201,123;    0,000
929,340;  194,131;  203,869;    0,000
929,894;  197,945;  205,491;    0,000
930,448;  201,802;  207,492;    0,000
931,002;  201,231;  207,396;    0,000
931,556;  200,245;  205,768;    0,000
932,110;  197,888;  201,841;    0,000
932,663;  197,531;  201,971;    0,000
933,217;  194,631;  200,338;    0,000
933,771;  196,074;  202,885;    0,000
934,324;  195,203;  202,963;    0,000
934,878;  189,560;  198,058;    0,000
935,432;  191,017;  199,585;    0,000
935,985;  192,931;  202,416;    0,000
936,538;  194,088;  204,139;    0,000
937,092;  192,331;  202,976;    0,000
937,645;  189,031;  200,878;    0,000
938,198;  190,617;  202,681;    0,000
938,752;  198,245;  208,393;    0,000
939,305;  199,217;  208,148;    0,000
939,858;  200,203;  208,961;    0,000
940,411;  201,774;  210,145;    0,000
940,964;  202,902;  210,751;    0,000
941,517;  206,374;  213,065;    0,000
942,070;  205,645;  212,641;    0,000
942,623;  202,074;  209,458;    0,000
943,176;  200,688;  209,573;    0,000
943,728;  199,545;  208,258;    0,000
944,281;  196,731;  204,818;    0,000
944,834;  199,003;  205,989;    0,000
945,387;  197,145;  203,591;    0,000
945,939;  196,345;  201,319;    0,000
946,492;  196,488;  201,376;    0,000
947,044;  196,488;  200,701;    0,000
947,597;  198,360;  200,166;    0,000
948,149;  197,803;  200,548;    0,000
948,701;  197,745;  199,722;    0,000
949,254;  201,588;  202,352;    0,000
949,806;  202,574;  203,593;    0,000
950,358;  203,345;  205,059;    0,000
950,910;  201,674;  204,118;    0,000
951,462;  197,345;  202,639;    0,000
952,014;  198,031;  204,869;    0,000
952,566;  194,574;  202,698;    0,000
953,118;  189,902;  201,818;    0,000
953,670;  187,503;  199,145;    0,000
954,222;  186,517;  196,979;    0,000
954,774;  186,131;  196,936;    0,000
955,326;  188,302;  197,469;    0,000
955,877;  188,431;  196,769;    0,000
956,429;  190,674;  200,098;    0,000
956,981;  192,245;  200,093;    0,000
957,532;  192,902;  201,002;    0,000
958,084;  192,403;  201,536;    0,000
958,635;  196,617;  204,051;    0,000
959,187;  198,960;  206,759;    0,000
959,738;  200,003;  207,136;    0,000
960,289;  202,988;  207,635;    0,000
960,840;  199,760;  205,733;    0,000
961,392;  204,303;  209,435;    0,000
961,943;  200,560;  205,886;    0,000
962,494;  197,303;  204,815;    0,000
963,045;  193,760;  202,815;    0,000
963,596;  193,960;  202,466;    0,000
964,147;  188,960;  199,959;    0,000
964,698;  189,060;  200,381;    0,000
965,249;  186,488;  198,676;    0,000
965,800;  185,088;  198,108;    0,000
966,350;  187,760;  199,271;    0,000
966,901;  187,588;  197,022;    0,000
967,452;  182,617;  194,105;    0,000
968,002;  184,503;  194,813;    0,000
968,553;  187,103;  195,785;    0,000
969,103;  185,017;  194,262;    0,000
969,654;  189,517;  197,573;    0,000
970,204;  186,831;  193,316;    0,000
970,755;  191,874;  198,635;    0,000
971,305;  192,588;  196,475;    0,000
971,855;  194,788;  197,563;    0,000
972,405;  195,960;  198,476;    0,000
972,956;  196,903;  198,329;    0,000
973,506;  193,231;  195,188;    0,000
974,056;  194,788;  199,055;    0,000
974,606;  191,560;  196,771;    0,000
975,156;  195,160;  202,006;    0,000
975,706;  192,503;  200,901;    0,000
976,255;  190,531;  198,085;    0,000
976,805;  184,545;  194,115;    0,000
977,355;  184,860;  193,511;    0,000
977,905;  181,917;  190,249;    0,000
978,454;  178,717;  186,708;    0,000
979,004;  177,460;  186,169;    0,000
979,554;  172,888;  181,323;    0,000
980,103;  173,245;  183,672;    0,000
980,653;  177,645;  187,109;    0,000
981,202;  181,417;  189,989;    0,000
981,751;  183,117;  190,483;    0,000
982,301;  185,374;  192,135;    0,000
982,850;  185,445;  192,056;    0,000
983,399;  189,174;  195,139;    0,000
983,948;  186,945;  192,845;    0,000
984,497;  185,103;  192,408;    0,000
985,046;  183,960;  192,701;    0,000
985,595;  180,260;  190,479;    0,000
986,144;  179,960;  191,313;    0,000
986,693;  180,045;  190,216;    0,000
987,242;  177,774;  189,391;    0,000
987,791;  178,074;  187,878;    0,000
988,340;  178,874;  187,055;    0,000
988,888;  178,945;  185,666;    0,000
989,437;  181,660;  187,833;    0,000
989,986;  180,974;  187,305;    0,000
990,534;  183,588;  189,511;    0,000
991,083;  183,674;  188,602;    0,000
991,631;  188,502;  194,181;    0,000
992,180;  186,088;  192,253;    0,000
992,728;  186,374;  194,729;    0,000
993,276;  185,945;  194,772;    0,000
993,825;  190,031;  197,686;    0,000
994,373;  186,831;  195,889;    0,000
994,921;  189,474;  198,619;    0,000
995,469;  186,817;  194,948;    0,000
996,017;  191,845;  197,799;    0,000
996,565;  189,931;  195,386;    0,000
997,113;  188,374;  194,233;    0,000
997,661;  188,788;  195,701;    0,000
998,209;  187,188;  193,923;    0,000
998,757;  187,645;  194,433;    0,000
999,304;  189,445;  198,521;    0,000
999,852;  185,417;  198,102;    0,000
1000,400;  188,817;  200,345;    0,000
1000,947;  191,674;  202,122;    0,000
1001,495;  189,402;  199,105;    0,000
1002,042;  192,602;  201,096;    0,000
1002,590;  192,117;  201,802;    0,000
1003,137;  192,231;  201,246;    0,000
1003,684;  198,917;  205,853;    0,000
1004,232;  199,117;  205,866;    0,000
1004,779;  197,488;  204,868;    0,000
1005,326;  196,517;  204,949;    0,000
1005,873;  197,874;  205,993;    0,000
1006,420;  202,331;  208,981;    0,000
1006,967;  196,917;  203,853;    0,000
1007,514;  193,117;  200,048;    0,000
1008,061;  189,517;  198,576;    0,000
1008,608;  192,788;  200,879;    0,000
1009,155;  195,860;  203,512;    0,000
1009,702;  190,445;  200,036;    0,000
1010,248;  188,360;  197,241;    0,000
1010,795;  191,802;  199,646;    0,000
1011,342;  194,817;  203,321;    0,000
1011,888;  199,188;  207,002;    0,000
1012,435;  198,217;  205,935;    0,000
1012,981;  199,388;  205,785;    0,000
1013,528;  203,688;  210,649;    0,000
1014,074;  203,917;  211,203;    0,000
1014,620;  206,003;  214,266;    0,000
1015,166;  205,445;  213,948;    0,000
1015,713;  204,931;  213,669;    0,000
1016,259;  203,531;  212,485;    0,000
1016,805;  198,417;  208,745;    0,000
1017,351;  198,788;  208,248;    0,000
1017,897;  194,774;  205,171;    0,000
1018,443;  192,402;  201,905;    0,000
1018,989;  189,160;  198,913;    0,000
1019,535;  186,974;  195,983;    0,000
1020,080;  187,060;  196,713;    0,000
1020,626;  190,174;  199,155;    0,000
1021,172;  188,360;  196,982;    0,000
1021,717;  188,231;  196,409;    0,000
1022,263;  191,445;  199,171;    0,000
1022,809;  194,017;  199,549;    0,000
1023,354;  198,417;  204,042;    0,000
1023,900;  195,360;  200,485;    0,000
1024,445;  192,488;  197,875;    0,000
1024,990;  194,017;  198,491;    0,000
1025,535;  195,717;  199,736;    0,000
1026,081;  191,945;  196,598;    0,000
1026,626;  189,088;  195,008;    0,000
1027,171;  184,774;  190,711;    0,000
1027,716;  189,003;  195,075;    0,000
1028,261;  187,088;  194,342;    0,000
1028,806;  187,017;  195,149;    0,000
1029,351;  186,074;  194,293;    0,000
1029,896;  190,660;  198,786;    0,000
1030,441;  190,631;  198,806;    0,000
1030,985;  188,845;  198,338;    0,000
1031,530;  187,588;  196,731;    0,000
1032,075;  187,217;  196,178;    0,000
1032,619;  190,545;  200,828;    0,000
1033,164;  187,831;  198,722;    0,000
1033,708;  184,445;  196,279;    0,000
1034,253;  184,631;  195,459;    0,000
1034,797;  186,988;  196,476;    0,000
1035,341;  185,574;  196,176;    0,000
1035,886;  187,874;  198,575;    0,000
1036,430;  183,803;  193,261;    0,000
1036,974;  190,302;  199,781;    0,000
1037,518;  188,745;  198,938;    0,000
1038,062;  188,617;  199,306;    0,000
1038,606;  189,088;  199,698;    0,000
1039,150;  187,531;  197,595;    0,000
1039,694;  188,874;  198,072;    0,000
1040,238;  188,588;  197,332;    0,000
1040,782;  185,117;  192,828;    0,000
1041,326;  187,688;  194,282;    0,000
1041,869;  190,388;  197,628;    0,000
1042,413;  191,031;  198,241;    0,000
1042,957;  195,474;  202,171;    0,000
1043,500;  195,088;  200,459;    0,000
1044,044;  195,145;  201,346;    0,000
1044,587;  194,917;  201,756;    0,000
1045,131;  197,660;  202,998;    0,000
1045,674;  196,874;  200,305;    0,000
1046,217;  198,931;  202,883;    0,000
1046,760;  196,688;  201,263;    0,000
1047,304;  194,945;  201,275;    0,000
1047,847;  197,917;  202,502;    0,000
1048,390;  201,174;  204,491;    0,000
1048,933;  199,260;  203,545;    0,000
1049,476;  201,088;  206,341;    0,000
1050,019;  200,860;  205,258;    0,000
1050,562;  201,803;  206,332;    0,000
1051,104;  204,545;  208,866;    0,000
1051,647;  207,788;  212,155;    0,000
1052,190;  209,717;  215,566;    0,000
1052,732;  206,317;  213,151;    0,000
1053,275;  202,231;  209,453;    0,000
1053,818;  198,845;  207,208;    0,000
1054,360;  198,845;  207,191;    0,000
1054,903;  202,603;  209,083;    0,000
1055,445;  195,545;  203,278;    0,000
1055,987;  194,703;  202,881;    0,000
1056,530;  198,117;  204,958;    0,000
1057,072;  200,388;  206,759;    0,000
1057,614;  197,545;  203,476;    0,000
1058,156;  201,831;  206,599;    0,000
1058,698;  195,474;  203,358;    0,000
1059,240;  197,831;  206,353;    0,000
1059,782;  194,574;  203,668;    0,000
1060,324;  192,531;  203,211;    0,000
1060,866;  193,503;  205,362;    0,000
1061,408;  198,503;  209,819;    0,000
1061,949;  197,931;  209,153;    0,000
1062,491;  199,331;  209,405;    0,000
1063,033;  200,560;  209,529;    0,000
1063,574;  199,945;  208,592;    0,000
1064,116;  198,503;  206,232;    0,000
1064,657;  197,017;  205,076;    0,000
1065,199;  199,117;  207,033;    0,000
1065,740;  197,631;  206,936;    0,000
1066,281;  200,203;  209,778;    0,000
1066,823;  197,103;  205,196;    0,000
1067,364;  201,288;  208,968;    0,000
1067,905;  205,074;  213,685;    0,000
1068,446;  204,560;  212,301;    0,000
1068,987;  201,231;  210,768;    0,000
1069,528;  199,317;  209,179;    0,000
1070,069;  201,588;  211,116;    0,000
1070,610;  201,302;  212,905;    0,000
1071,151;  198,788;  208,663;    0,000
1071,692;  198,445;  206,752;    0,000
1072,232;  198,017;  205,788;    0,000
1072,773;  199,260;  204,421;    0,000
1073,314;  198,460;  203,598;    0,000
1073,854;  195,274;  200,458;    0,000
1074,395;  197,245;  200,966;    0,000
1074,935;  196,674;  202,371;    0,000
1075,476;  195,231;  200,971;    0,000
1076,016;  196,817;  202,911;    0,000
1076,556;  196,188;  203,479;    0,000
1077,097;  199,074;  205,328;    0,000
1077,637;  200,145;  205,439;    0,000
1078,177;  198,631;  203,913;    0,000
1078,717;  199,802;  204,766;    0,000
1079,257;  200,531;  206,941;    0,000
1079,797;  203,974;  210,331;    0,000
1080,337;  203,503;  210,848;    0,000
1080,877;  199,102;  208,226;    0,000
1081,417;  196,631;  207,406;    0,000
1081,956;  194,588;  207,436;    0,000
1082,496;  192,060;  205,606;    0,000
1083,036;  192,088;  204,488;    0,000
1083,575;  187,160;  200,176;    0,000
1084,115;  185,731;  197,792;    0,000
1084,654;  190,031;  199,815;    0,000
1085,194;  192,574;  201,346;    0,000
1085,733;  195,274;  203,708;    0,000
1086,273;  197,517;  205,421;    0,000
1086,812;  201,631;  209,239;    0,000
1087,351;  204,174;  211,091;    0,000
1087,890;  203,817;  210,099;    0,000
1088,429;  203,617;  210,881;    0,000
1088,968;  201,203;  208,909;    0,000
1089,507;  203,345;  209,501;    0,000
1090,046;  203,374;  209,315;    0,000
1090,585;  196,660;  203,596;    0,000
1091,124;  195,717;  203,602;    0,000
1091,663;  197,474;  206,195;    0,000
1092,202;  198,803;  207,848;    0,000
1092,740;  200,017;  208,743;    0,000
1093,279;  195,788;  206,413;    0,000
1093,818;  194,445;  205,158;    0,000
1094,356;  197,288;  208,232;    0,000
1094,895;  196,302;  206,805;    0,000
1095,433;  196,188;  204,838;    0,000
1095,971;  194,345;  203,221;    0,000
1096,510;  194,817;  201,822;    0,000
1097,048;  193,545;  200,842;    0,000
1097,586;  191,817;  201,033;    0,000
1098,124;  192,788;  200,926;    0,000
1098,662;  195,817;  203,608;    0,000
1099,200;  195,488;  204,806;    0,000
1099,738;  194,374;  204,136;    0,000
1100,276;  196,774;  208,125;    0,000

